VAMAS Surface Chemical Analysis Standard Data Transfer Format 1988 May 4




1
Experiment Type: XPS
NORM
REGULAR
6
0
0
0
0
0
6


2022
8
9
10
20
28
0
0
XPS

1486.7
300.0
1E37
1E37
1E37
1E37
FAT
50.00
5.0
4.500
1E37
2400
1200
1E37
1E37


-1
kinetic energy
eV
100.0
0.5
1
count rate
c/s
pulse counting
0.200
1
70E-9
1E37
1E37
1E37
0
2774
0
3639
2675
2745
2685
2746
2717
2615
2694
2660
2691
2668
2645
2656
2647
2674
2649
2719
2686
2596
2681
2579
2550
2526
2687
2616
2609
2584
2571
2562
2551
2607
2474
2558
2559
2601
2596
2620
2588
2580
2529
2552
2601
2499
2484
2612
2511
2508
2555
2571
2641
2579
2662
2484
2557
2534
2498
2496
2453
2511
2511
2607
2465
2420
2501
2493
2515
2485
2517
2501
2518
2485
2466
2562
2478
2483
2469
2405
2505
2463
2351
2458
2425
2465
2426
2449
2483
2523
2441
2433
2432
2423
2390
2487
2501
2402
2380
2404
2404
2448
2468
2398
2466
2530
2439
2447
2452
2411
2384
2419
2497
2474
2452
2392
2400
2410
2416
2359
2318
2372
2426
2423
2373
2425
2443
2477
2424
2333
2459
2436
2399
2433
2398
2439
2392
2334
2379
2394
2399
2386
2416
2425
2344
2374
2374
2378
2382
2425
2410
2390
2463
2363
2397
2327
2309
2428
2347
2388
2405
2410
2334
2373
2367
2365
2397
2431
2364
2398
2364
2352
2416
2365
2391
2428
2420
2425
2411
2365
2393
2432
2456
2290
2360
2338
2308
2420
2406
2345
2424
2329
2320
2314
2381
2377
2318
2303
2342
2379
2334
2414
2386
2361
2354
2371
2355
2474
2397
2421
2391
2358
2439
2408
2373
2467
2431
2323
2407
2453
2396
2384
2385
2316
2445
2473
2412
2329
2383
2359
2408
2319
2429
2496
2496
2349
2396
2444
2381
2462
2368
2427
2412
2448
2433
2432
2397
2438
2456
2439
2452
2387
2345
2435
2370
2466
2479
2353
2472
2442
2379
2493
2495
2506
2387
2369
2416
2417
2488
2432
2525
2402
2505
2494
2527
2381
2488
2512
2512
2490
2521
2498
2466
2423
2492
2534
2512
2473
2513
2516
2545
2557
2439
2493
2486
2475
2459
2593
2590
2387
2520
2411
2406
2406
2411
2443
2522
2442
2497
2549
2525
2508
2450
2496
2577
2545
2636
2599
2556
2652
2557
2593
2506
2517
2575
2553
2582
2645
2572
2598
2566
2573
2639
2501
2498
2499
2432
2383
2417
2335
2348
2353
2251
2219
2152
2218
2185
2141
2165
2137
2015
2077
2026
2072
2073
2097
2068
2033
2031
2041
1995
1993
2029
1978
1972
2031
1980
1992
1969
2032
2026
1978
2000
1935
1961
2031
2038
2042
2048
1985
2011
2022
2021
2074
2105
2034
2117
2012
2042
2039
2074
2032
1994
1935
1907
1933
1903
1970
1916
1912
1937
1922
1981
1977
1959
1922
1973
1947
1934
1981
1943
1973
1911
1911
1953
1954
1903
1938
1905
1964
1998
1927
1942
1996
1944
1941
1899
1931
1903
1923
1913
1959
1899
1874
1965
1913
1907
1919
1896
1893
1906
1974
1960
1995
1916
1967
1963
1980
1884
1959
1928
1996
2061
1962
1960
1927
1844
1999
2018
2000
1896
1864
1921
1908
1936
1999
1948
1937
1992
1973
1950
1962
2000
1947
1915
1890
1959
1902
2038
1910
1930
1966
1907
1923
1939
1944
1962
1988
2016
1987
1982
1944
1965
1921
1879
1969
1939
1949
1965
2007
1974
1936
1959
1995
1986
2004
1944
1973
1951
1984
1995
1933
1993
2091
2027
1986
2031
1891
1978
1957
1957
1905
1976
1977
1948
1950
1936
1976
1949
1981
1987
1975
1978
2015
1945
1901
1953
1984
1957
1991
2001
1969
1952
1925
1965
1910
2035
1933
1921
1924
1993
1952
2007
1931
1918
2004
1984
1984
1947
1925
1938
1978
1982
1955
2021
2003
1918
1983
1917
2025
1969
1962
1959
1926
1993
2034
2011
1985
2000
1986
2011
1970
1999
2003
1987
2076
1961
2013
1996
2024
2002
1974
1976
1990
1980
2017
2063
2035
2000
1979
2049
2005
2007
2022
2046
2016
1942
1907
1940
2047
2022
2011
1993
2051
2009
2040
1961
1998
1975
1978
1983
2004
1938
2061
1977
2077
1999
1942
1993
1942
2075
2154
2082
2116
1993
1986
2012
2040
2064
1923
1911
1975
2038
2090
2057
2041
2031
2043
1981
1977
1988
2016
2016
2055
1975
1995
1987
2025
2010
1953
1923
1916
2028
1988
1946
1945
1980
1978
1948
1907
1927
1868
1900
1986
1932
1968
1942
1969
1952
1969
2105
2218
2294
2374
2438
2482
2486
2212
2186
2126
1992
1999
2055
2006
1969
1844
1924
1968
1945
1984
1932
1871
1912
1856
1927
1871
1881
1884
1822
1846
1898
1871
1905
1809
1840
1782
1781
1795
1793
1796
1738
1824
1843
1873
1769
1903
1868
2111
2316
2666
2817
2879
2802
2471
2189
1949
1859
1802
1828
1862
1853
1756
1743
1727
1782
1787
1759
1707
1736
1796
1806
1798
1849
1808
1744
1770
1782
1740
1778
1789
1737
1729
1768
1706
1727
1714
1785
1747
1763
1834
1755
1804
1726
1800
1795
1763
1759
1870
1735
1709
1784
1809
1750
1766
1741
1751
1676
1729
1765
1697
1713
1668
1697
1662
1671
1696
1708
1711
1726
1649
1670
1711
1682
1673
1609
1700
1608
1632
1633
1728
1688
1715
1733
1693
1748
1755
1857
1766
1743
1742
1747
1833
1838
1815
1803
1789
1708
1734
1648
1701
1707
1780
1691
1577
1556
1589
1702
1605
1543
1556
1580
1474
1487
1498
1471
1443
1509
1439
1468
1521
1492
1439
1534
1586
1495
1483
1534
1509
1484
1510
1437
1469
1464
1486
1455
1560
1456
1436
1503
1452
1478
1444
1516
1471
1504
1451
1527
1488
1535
1407
1453
1434
1463
1492
1510
1518
1516
1480
1453
1527
1504
1508
1515
1459
1447
1467
1448
1516
1464
1455
1486
1461
1526
1532
1531
1490
1504
1512
1469
1498
1546
1507
1515
1546
1497
1510
1461
1480
1497
1467
1483
1453
1488
1446
1516
1517
1535
1541
1513
1500
1505
1555
1503
1449
1526
1463
1384
1488
1502
1497
1492
1486
1493
1529
1470
1490
1457
1407
1514
1480
1547
1482
1530
1516
1448
1445
1494
1571
1550
1474
1473
1504
1509
1536
1484
1478
1463
1558
1464
1573
1515
1487
1508
1468
1488
1478
1521
1485
1490
1482
1527
1495
1547
1487
1450
1491
1516
1555
1484
1410
1468
1475
1556
1485
1510
1497
1476
1493
1537
1514
1533
1448
1464
1449
1521
1488
1476
1454
1510
1465
1495
1498
1509
1534
1521
1510
1545
1537
1534
1480
1563
1478
1472
1548
1506
1490
1443
1525
1569
1557
1471
1492
1449
1466
1430
1438
1462
1488
1536
1528
1520
1565
1504
1508
1524
1470
1452
1504
1540
1498
1526
1544
1484
1473
1445
1443
1458
1475
1490
1532
1461
1513
1489
1538
1478
1517
1498
1437
1470
1463
1478
1483
1459
1490
1496
1541
1537
1482
1520
1534
1460
1408
1490
1532
1481
1503
1467
1461
1459
1423
1490
1470
1461
1450
1512
1551
1493
1508
1468
1487
1477
1490
1500
1488
1500
1469
1465
1482
1496
1528
1517
1503
1524
1491
1504
1530
1446
1517
1478
1529
1513
1529
1499
1528
1531
1486
1517
1524
1543
1504
1511
1514
1474
1490
1425
1459
1486
1530
1476
1529
1510
1464
1505
1504
1509
1506
1475
1495
1547
1500
1440
1451
1498
1501
1462
1501
1520
1510
1503
1522
1479
1562
1532
1443
1471
1545
1494
1395
1407
1486
1491
1541
1450
1466
1527
1428
1510
1521
1544
1522
1483
1458
1523
1476
1461
1471
1376
1485
1498
1554
1473
1538
1497
1490
1528
1454
1474
1478
1513
1470
1409
1498
1470
1496
1446
1514
1571
1498
1499
1532
1449
1500
1455
1467
1585
1503
1519
1501
1443
1514
1532
1504
1458
1504
1509
1525
1534
1496
1490
1475
1460
1441
1446
1500
1502
1500
1531
1490
1493
1467
1461
1560
1502
1534
1524
1547
1462
1462
1528
1516
1496
1544
1565
1525
1447
1459
1485
1518
1459
1452
1468
1457
1496
1517
1470
1436
1487
1438
1443
1520
1461
1447
1459
1465
1427
1456
1492
1521
1399
1461
1488
1460
1538
1440
1480
1470
1391
1487
1516
1482
1455
1464
1460
1477
1476
1491
1480
1532
1502
1451
1433
1394
1440
1447
1511
1481
1447
1442
1431
1446
1492
1501
1463
1456
1452
1463
1488
1483
1564
1529
1437
1478
1469
1468
1479
1431
1494
1494
1438
1458
1471
1453
1451
1432
1473
1433
1486
1451
1466
1471
1435
1493
1473
1493
1526
1484
1487
1475
1452
1455
1498
1421
1492
1477
1488
1451
1407
1476
1430
1451
1480
1481
1480
1373
1493
1434
1508
1418
1444
1410
1461
1449
1458
1441
1451
1465
1453
1417
1410
1401
1377
1432
1412
1417
1371
1383
1373
1398
1468
1457
1460
1482
1389
1459
1402
1420
1400
1407
1457
1464
1525
1412
1422
1428
1392
1426
1381
1362
1412
1453
1392
1374
1459
1452
1369
1402
1413
1428
1450
1381
1441
1445
1362
1373
1408
1407
1369
1369
1374
1355
1412
1420
1379
1354
1404
1390
1431
1464
1382
1448
1423
1386
1327
1355
1414
1431
1425
1392
1407
1417
1354
1426
1452
1394
1407
1384
1326
1399
1397
1390
1359
1375
1347
1367
1362
1322
1386
1408
1387
1335
1373
1296
1383
1318
1319
1378
1331
1350
1330
1320
1313
1277
1329
1316
1289
1330
1312
1311
1300
1280
1251
1356
1333
1356
1396
1372
1277
1277
1355
1346
1324
1353
1327
1370
1326
1335
1328
1385
1289
1305
1341
1316
1292
1291
1243
1328
1260
1267
1249
1286
1277
1277
1282
1299
1248
1247
1254
1259
1253
1274
1280
1302
1244
1260
1269
1231
1254
1237
1244
1242
1344
1292
1273
1277
1263
1229
1265
1289
1273
1272
1230
1259
1292
1286
1273
1246
1299
1318
1285
1252
1298
1318
1238
1222
1242
1284
1242
1224
1224
1263
1218
1273
1295
1249
1269
1246
1240
1196
1211
1202
1228
1208
1310
1289
1245
1201
1182
1208
1216
1207
1219
1227
1248
1174
1206
1204
1217
1234
1281
1255
1283
1258
1226
1191
1212
1236
1135
1227
1157
1204
1150
1190
1199
1206
1243
1245
1267
1247
1269
1212
1198
1192
1156
1138
1163
1161
1173
1091
1121
1100
1193
1082
1097
1085
1084
1152
1167
1144
1132
1090
1125
1115
1051
1103
1140
1110
1096
1135
1121
1103
1088
1106
1134
1149
1121
1072
1114
1162
1079
1111
1150
1141
1124
1158
1141
1095
1107
1110
1060
1140
1147
1134
1155
1112
1121
1044
1100
1086
1025
1065
1017
1019
978
934
959
889
910
906
922
909
863
858
855
856
812
794
761
751
817
788
767
785
821
855
886
984
1144
1415
1829
2286
2474
2379
2082
1613
1184
958
787
775
769
763
794
754
725
814
755
714
728
758
744
764
759
721
750
724
747
704
714
741
756
741
731
727
735
740
683
705
717
696
692
732
743
690
677
690
713
702
695
698
710
649
652
660
683
683
724
691
700
729
734
737
801
814
770
765
830
864
798
866
829
777
804
779
742
683
677
638
616
603
595
578
596
605
610
612
548
561
612
608
627
610
610
587
609
609
585
644
607
612
601
587
585
576
581
586
611
573
608
656
655
634
674
664
667
616
622
629
628
622
600
589
555
570
559
578
526
599
590
581
540
580
557
546
539
543
535
570
577
555
519
581
581
586
562
566
551
594
540
579
549
553
582
592
558
596
565
572
567
577
559
549
587
606
558
568
578
525
536
551
567
526
532
570
528
545
560
543
583
575
565
595
564
636
632
610
652
639
644
621
641
582
566
558
525
539
536
517
526
537
569
592
543
567
589
538
573
543
548
518
520
531
536
553
563
586
544
556
513
594
575
579
577
554
556
547
519
555
577
583
566
537
546
565
556
527
551
564
543
551
575
557
553
577
561
554
587
573
579
552
554
567
561
602
579
581
573
529
551
579
559
546
555
620
610
592
583
557
568
553
550
548
588
579
583
570
536
551
570
547
577
588
566
568
560
564
608
531
592
591
610
551
577
535
575
565
594
562
552
562
527
562
605
578
541
581
580
598
600
561
572
593
602
575
573
592
589
621
601
628
602
625
577
579
595
576
604
625
589
574
587
535
574
634
610
604
583
609
586
597
603
623
561
569
613
534
589
590
606
603
594
621
538
564
561
572
568
550
578
621
608
640
670
696
776
670
691
633
683
831
893
951
862
729
666
605
575
551
550
562
541
544
554
554
537
534
549
537
558
568
494
589
534
546
558
586
592
570
577
571
582
559
605
559
541
583
537
542
564
560
576
575
599
593
591
601
534
618
599
553
585
604
578
581
575
576
567
577
540
557
603
562
551
573
570
605
577
635
595
586
622
626
590
620
621
608
604
650
664
632
652
615
647
677
687
697
687
622
578
633
608
567
570
534
564
554
506
457
460
454
424
397
361
402
365
383
342
327
322
305
285
265
253
233
272
289
352
430
420
428
419
486
736
1452
2587
3564
3639
2804
1665
837
434
300
256
216
198
183
212
191
204
174
227
241
214
217
208
201
183
178
215
182
180
180
197
181
210
209
196
182
191
174
179
167
172
170
178
228
218
189
176
171
194
174
191
184
189
200
206
185
183
201
177
202
190
171
192
189
188
203
188
189
190
183
183
178
180
188
210
194
203
172
183
170
174
195
172
213
198
184
182
193
173
181
168
174
179
182
189
181
182
167
177
169
171
185
171
174
181
184
180
202
200
208
215
208
204
179
171
195
185
174
173
165
173
173
196
190
185
179
184
168
182
160
175
188
176
192
184
189
188
185
166
175
171
168
180
171
168
195
173
192
167
173
202
168
162
155
189
194
194
183
173
186
167
162
188
175
161
162
153
171
179
170
182
191
171
175
142
158
183
172
194
183
177
184
183
173
175
178
167
164
167
159
189
187
181
176
160
181
154
159
169
168
197
154
154
162
173
186
168
172
190
161
152
165
162
164
175
164
183
166
159
168
185
156
168
175
156
142
154
161
136
149
145
150
169
193
183
183
207
231
211
177
165
157
167
137
134
145
157
145
138
176
166
185
151
157
158
145
155
160
160
160
144
145
155
157
151
162
156
154
161
146
163
154
147
138
145
143
142
150
145
140
134
135
165
139
134
133
159
152
166
196
171
195
185
202
173
171
196
191
163
166
160
153
138
139
123
129
129
147
142
126
137
131
146
137
125
143
134
137
126
119
128
122
121
116
115
124
122
132
132
138
141
125
130
125
116
130
128
126
135
132
132
140
119
120
137
119
137
114
115
119
121
130
126
120
135
131
130
123
123
129
127
139
124
126
135
126
131
120
132
113
126
126
107
105
95
88
98
90
98
90
95
97
116
103
105
125
122
119
128
134
157
194
196
212
198
183
206
200
201
179
149
140
126
117
95
91
97
71
83
78
82
74
73
70
81
86
82
77
78
74
76
74
86
94
62
68
68
69
77
75
82
77
62
64
78
89
75
78
68
83
76
82
82
71
76
66
81
83
73
88
87
65
68
69
77
57
82
63
77
84
82
65
72
73
65
78
81
67
73
68
65
69
68
59
63
77
71
67
79
72
70
76
83
84
88
97
85
99
75
68
88
65
57
62
51
56
53
60
67
67
58
43
52
60
72
57
56
58
61
61
51
54
59
49
72
77
65
58
70
68
90
112
109
119
113
97
89
77
62
48
51
38
37
46
57
50
65
48
52
60
48
38
31
34
54
63
59
68
81
77
87
76
98
84
96
86
69
55
41
36
41
33
28
21
22
23
22
15
10
5
3
0
0
1
2
1
0
0


2022
8
9
10
20
28
0
1
O
XPS

1486.7
300.0
1E37
1E37
1E37
1E37
FAT
20.00
5.0
4.500
1E37
2400
1200
1E37
1E37


-1
kinetic energy
eV
948.7
0.100
1
count rate
c/s
pulse counting
0.200
5
70E-9
1E37
1E37
1E37
0
121
798
2911
924
935
907
878
892
878
912
948
925
978
955
978
978
969
1023
1047
1059
1046
1023
1022
1163
1236
1220
1294
1318
1357
1460
1482
1583
1662
1736
1824
1933
2065
2133
2275
2347
2494
2624
2664
2774
2883
2896
2911
2858
2874
2820
2789
2691
2636
2570
2376
2316
2219
2161
2027
1958
1860
1712
1596
1530
1469
1381
1353
1250
1146
1100
1060
1049
950
948
915
891
956
963
907
908
896
835
874
920
886
840
836
849
860
845
802
827
876
864
859
851
851
822
838
878
866
830
798
830
853
859
878
852
836
811
808
878
826
819
850
859
800
815
867
819
886
805
847
830


2022
8
9
10
20
28
0
1
C
XPS

1486.7
300.0
1E37
1E37
1E37
1E37
FAT
20.00
5.0
4.500
1E37
2400
1200
1E37
1E37


-1
kinetic energy
eV
1194.7
0.100
1
count rate
c/s
pulse counting
0.200
4
70E-9
1E37
1E37
1E37
0
111
175
3732
299
323
312
332
338
357
343
397
364
389
413
410
397
422
422
393
380
396
437
374
368
376
391
400
389
400
409
403
415
408
462
516
568
602
670
794
916
1126
1291
1479
1689
2018
2252
2528
2830
3037
3231
3417
3569
3732
3693
3722
3663
3536
3439
3197
2948
2762
2470
2225
2030
1701
1578
1369
1088
970
841
736
599
512
442
429
398
364
360
312
319
297
272
272
269
250
220
237
228
236
220
218
225
230
205
229
223
199
180
192
186
205
184
193
210
193
175
199
203
205
226
215
204
233
200


2022
8
9
10
20
28
0
1
Zn
XPS

1486.7
300.0
1E37
1E37
1E37
1E37
FAT
20.00
5.0
4.500
1E37
2400
1200
1E37
1E37


-1
kinetic energy
eV
433.7
0.100
1
count rate
c/s
pulse counting
0.200
10
70E-9
1E37
1E37
1E37
0
381
3748
6727
4350
4301
4298
4478
4396
4420
4355
4353
4354
4417
4440
4395
4327
4408
4380
4465
4367
4488
4517
4473
4354
4436
4352
4493
4418
4480
4442
4406
4462
4420
4427
4501
4495
4423
4456
4541
4570
4500
4626
4621
4750
4595
4629
4704
4844
4714
4912
4928
5074
5166
4978
5105
5217
5345
5375
5290
5312
5500
5542
5670
5558
5744
5844
5757
5679
5796
5658
5806
5792
5536
5698
5725
5712
5553
5513
5270
5227
5276
5025
4969
4885
4812
4887
4824
4719
4693
4535
4538
4459
4444
4499
4520
4442
4474
4440
4451
4578
4453
4507
4426
4432
4476
4406
4421
4338
4390
4367
4347
4411
4427
4314
4398
4519
4412
4409
4462
4362
4358
4457
4377
4350
4428
4428
4276
4431
4334
4327
4365
4255
4361
4468
4474
4402
4389
4267
4271
4265
4304
4240
4267
4406
4265
4298
4291
4148
4334
4270
4197
4149
4280
4229
4322
4259
4222
4292
4222
4242
4165
4300
4239
4308
4284
4210
4224
4151
4182
4236
4313
4252
4123
4109
4236
4147
4140
4228
4160
4202
4197
4182
4175
4197
4188
4170
4015
4178
4241
4163
4110
4196
4228
4058
4107
4070
4089
4165
4129
4083
3989
4012
4054
4029
3976
3938
4116
4030
4022
4054
4045
4093
4015
4115
4067
4002
3997
4064
3996
4080
4093
3951
3946
4005
3941
3955
3882
4079
3980
3898
3996
3943
3926
3862
4060
4005
4054
3992
3889
3946
3945
3894
3894
3972
3922
3873
3958
3889
3806
3960
3984
3890
3971
3982
3936
3822
3964
3915
4029
3949
3975
3965
3901
3921
4010
3926
4046
3969
4037
4038
4115
4102
4120
4173
4452
4392
4460
4489
4607
4794
4725
5014
5082
5276
5363
5398
5616
5691
5675
5730
5859
6176
6261
6381
6364
6412
6554
6677
6608
6727
6700
6711
6607
6687
6569
6439
6223
6040
5950
5595
5578
5416
5276
5004
4947
4658
4501
4459
4449
4241
4251
4206
4183
4070
4098
3979
4063
3978
4014
4023
4052
3865
3920
3908
3909
3898
3907
3956
3930
3897
3958
3861
3948
3954
3863
3914
3838
3808
3902
3833
3974
3842
3889
3766
3945
3829
3899
3869
3897
3845
3840
3769
3748
3847
3805
3807
3849
3879
3847
3898
3865
3913
3820
3826
3870
3878
3818
3816
3814
3974
3794
3814
3846
3819


2022
8
9
10
20
28
0
1
Cr
XPS

1486.7
300.0
1E37
1E37
1E37
1E37
FAT
20.00
5.0
4.500
1E37
2400
1200
1E37
1E37


-1
kinetic energy
eV
888.7
0.100
1
count rate
c/s
pulse counting
0.200
30
70E-9
1E37
1E37
1E37
0
291
7707
9025
8663
8811
8699
8616
8744
8630
8769
8738
8785
8677
8694
8729
8667
8659
8655
8680
8763
8844
8669
8664
8591
8503
8297
8574
8690
8661
8600
8548
8529
8678
8753
8739
8618
8657
8619
8639
8561
8563
8435
8544
8801
8697
8578
8608
8626
8573
8568
8711
8572
8699
8665
8620
8710
8661
8586
8545
8569
8699
8786
8652
8763
8652
8662
8685
8795
8738
8731
8727
8674
8751
8657
8713
8659
8788
8692
8849
8919
8849
8961
8858
8806
8880
8807
9025
8846
8994
8977
8926
8902
8966
8867
8824
8854
8880
8754
8966
8965
8959
8910
9007
8953
8960
8889
8821
8861
8949
8936
8834
8881
8859
8822
8590
8808
8758
8784
8848
8735
8743
8765
8704
8622
8703
8764
8590
8533
8645
8557
8507
8482
8617
8573
8547
8427
8502
8356
8397
8457
8372
8418
8500
8573
8422
8589
8442
8521
8615
8485
8680
8524
8499
8512
8396
8396
8462
8434
8442
8504
8579
8525
8495
8578
8562
8523
8584
8407
8360
8513
8497
8583
8628
8499
8626
8621
8635
8723
8479
8638
8524
8559
8513
8600
8493
8654
8585
8729
8605
8554
8686
8643
8456
8500
8472
8528
8548
8511
8415
8480
8536
8412
8414
8385
8289
8278
8415
8372
8378
8291
8309
8226
8342
8087
8295
8279
8477
8315
8154
8213
8174
8195
8035
8100
8231
8136
8003
8178
8178
8168
8033
8056
8024
8194
8201
8057
8024
8017
8039
8100
7943
8020
8109
8077
8004
7990
7998
8059
8008
8207
7907
8031
8111
8132
8152
8175
8089
7886
7962
7981
8117
7902
7837
8028
7917
8000
7943
7972
7867
7925
7814
7801
7905
7914
7972
7707
7907
7774
7889
7949
7977
7933
7805
7955
7910
7949
7948
7900
7996
7884
7875
7875
7906
7920


2022
8
9
10
20
28
0
1
Fe
XPS

1486.7
300.0
1E37
1E37
1E37
1E37
FAT
20.00
5.0
4.500
1E37
2400
1200
1E37
1E37


-1
kinetic energy
eV
755.7
0.100
1
count rate
c/s
pulse counting
0.200
1
70E-9
1E37
1E37
1E37
0
281
275
354
307
323
333
317
327
342
311
324
327
316
326
291
297
297
306
284
329
321
319
321
328
334
318
326
328
325
351
340
300
315
330
317
309
298
294
302
328
324
305
339
333
322
320
326
311
310
304
307
349
328
282
309
343
289
322
324
334
308
305
332
317
323
305
279
306
312
317
320
327
313
318
315
301
314
315
337
307
289
292
317
335
303
326
296
354
322
313
333
304
330
327
310
334
316
322
322
313
344
330
305
321
310
321
313
345
320
303
330
304
322
309
312
337
330
330
310
320
342
301
298
341
325
308
329
286
321
318
316
316
333
303
310
310
343
313
317
320
297
324
329
336
294
304
304
299
306
303
300
321
334
302
304
304
332
322
298
300
319
313
310
316
324
309
339
331
327
293
289
351
312
300
333
318
294
336
329
306
313
304
290
301
337
306
310
346
298
314
322
315
311
316
300
314
322
327
325
337
320
317
301
320
339
334
305
307
338
334
322
327
317
307
321
317
275
311
308
330
316
301
310
322
295
320
307
352
344
316
323
294
306
302
296
311
325
323
332
325
328
312
302
339
331
290
323
295
310
315
305
313
325
317
298
315
301
297
307
310
301
313
323
321
311
344
332
338
346
316
311
289
317
295
298
335
324
339
295
325
311
318
314
318
end of experiment
