VAMAS Surface Chemical Analysis Standard Data Transfer Format 1988 May 4




1
Experiment Type: XPS
NORM
REGULAR
5
0
0
0
0
0
5


2022
8
9
12
0
0
0
0
XPS

1486.7
300.0
1E37
1E37
1E37
1E37
FAT
50.00
5.0
4.500
1E37
2400
1200
1E37
1E37


-1
kinetic energy
eV
100.0
0.5
1
count rate
c/s
pulse counting
0.200
1
70E-9
1E37
1E37
1E37
0
2774
6
2745
1712
1780
1752
1706
1794
1770
1748
1761
1808
1786
1761
1799
1816
1711
1774
1802
1794
1760
1786
1761
1765
1852
1819
1813
1750
1751
1776
1790
1818
1784
1776
1805
1834
1864
1767
1821
1771
1797
1787
1765
1775
1772
1833
1807
1783
1873
1801
1826
1779
1794
1732
1887
1813
1816
1839
1852
1865
1831
1827
1871
1862
1866
1890
1794
1885
1900
1914
1919
1886
1921
1926
1844
1860
1883
1890
1904
1849
1900
1947
1915
1873
1892
1895
1966
1924
1885
1944
1878
1984
1933
1976
1962
1967
1913
1879
1919
1875
1958
1864
1923
1857
1935
1885
1953
1921
1948
1974
1930
1925
1936
1855
1995
1918
1939
1906
1851
1905
1926
1949
1966
1996
1992
1964
1977
2012
1999
1989
1998
2048
1915
1914
1965
1976
1966
1945
2003
2076
2019
2007
1993
1988
2048
2012
1965
1965
1974
1979
1971
1961
2056
2003
2034
2111
2032
1970
1924
1948
1995
2056
2063
2062
2011
2060
2075
2165
2039
2113
2078
2008
2037
2064
2090
2080
1994
2050
2069
2068
2065
1972
2000
2024
1990
1998
2004
2035
2062
2027
2047
2118
2123
2049
2062
2074
2108
2155
2070
2019
2080
2009
2039
2051
1991
2078
2057
2036
2079
2121
2006
1982
2050
1979
2036
2075
2088
2015
2113
2168
2092
2109
2111
2084
2073
2050
2113
2116
2145
2153
2127
2084
2055
2072
2046
2098
2066
2111
2056
2103
2139
2031
2203
2150
2148
2131
2149
2142
2103
2145
2104
2116
2189
2145
2168
2179
2175
2166
2089
2074
2137
2156
2195
2178
2169
2143
2085
2075
2155
2221
2177
2139
2133
2129
2175
2248
2215
2188
2174
2176
2233
2170
2194
2219
2223
2218
2195
2234
2190
2253
2242
2274
2193
2205
2213
2263
2230
2218
2225
2210
2197
2189
2138
2194
2202
2189
2300
2322
2275
2263
2282
2212
2289
2378
2294
2291
2269
2340
2317
2312
2381
2269
2336
2306
2313
2179
2262
2255
2294
2329
2230
2358
2350
2231
2336
2153
2205
2179
2133
2158
2155
2100
2078
2064
2096
2061
2182
2038
1998
2087
2096
2004
2012
1990
2025
1919
1959
1915
1940
1966
1981
1942
1897
1931
1932
1980
1952
1992
1984
1948
1916
1925
1905
1955
1986
1941
1902
1959
2014
2025
1980
1964
1950
1940
2041
2015
2038
1955
1954
1973
2005
1966
2025
1962
1972
1927
1965
1978
1978
1995
1970
1923
1998
1936
1908
1955
1960
1967
1998
2001
1952
1992
1940
1981
1988
1940
1921
2001
2049
1967
1924
1940
1994
1972
1923
1978
1945
1964
1895
1994
1941
2003
2021
1993
1944
1900
1961
1874
1878
1927
1933
1919
1931
1936
1969
1980
1962
1914
1990
2012
1991
1955
1967
1923
1995
1966
1912
2010
2020
1951
1938
1936
1948
1954
1912
1907
1929
1924
1949
1930
1938
1975
1900
1983
1941
1983
1962
1954
1959
1993
2034
1976
1915
1896
1974
2095
2056
2004
2048
2017
2035
2042
1978
2032
1967
2009
2043
2089
1992
1972
1940
2004
2119
2001
2028
2047
2042
2035
1945
1887
1973
2062
2037
2068
1981
1997
2098
2050
2025
2033
2112
2080
1984
2043
1985
2002
2066
2009
2047
2097
2034
2043
2008
2007
2056
2025
2052
2009
2064
2061
2061
2031
2040
2020
1968
2019
2044
2039
2022
2011
2069
2019
2026
2086
2089
2065
2025
1945
1987
2003
2065
2024
2105
2046
1987
2003
2009
2060
2020
1991
2021
2011
2092
2047
2082
2042
2120
2038
2030
2022
2041
2065
2045
2049
2118
2053
2053
2026
2036
2053
2096
2075
2054
2078
2062
2158
2085
2133
2065
2139
2107
2082
2104
2063
2098
2070
2165
2102
2073
2108
2151
2152
2071
2066
2153
2146
2155
2075
2189
2129
2085
2062
2160
2175
2143
2099
2183
2105
2153
2175
2125
2206
2286
2348
2304
2303
2158
2176
2174
2250
2177
2169
2184
2167
2146
2130
2174
2157
2167
2152
2185
2217
2193
2197
2108
2201
2111
2100
2125
2218
2206
2176
2201
2224
2185
2162
2185
2218
2174
2194
2210
2139
2180
2225
2207
2115
2121
2206
2229
2112
2100
2183
2133
2215
2185
2178
2231
2241
2241
2180
2198
2219
2151
2220
2210
2175
2121
2121
2161
2081
2140
2054
2123
2003
2070
2046
2102
2110
2040
2064
2101
2175
2085
2070
2135
2069
2125
2046
2101
2046
2098
2069
2083
2167
2033
2082
2104
2095
2169
2153
2130
2118
2134
2128
2117
2066
2047
2085
2057
2084
2141
2109
2066
2063
2090
2126
2106
2096
2062
2115
2026
2064
2107
2068
2080
2129
2132
2152
2071
2159
2010
2146
2077
2086
2087
2110
2093
2113
2124
2143
2135
2145
2132
2122
2111
2131
2148
2052
2016
2101
2114
2104
2090
2062
2125
2069
2004
2075
2040
2045
2011
2071
2017
2087
2026
2019
2059
2071
2053
1995
2038
1931
1927
1955
1976
1954
1934
2009
2022
1972
2025
2014
2022
2015
2057
1948
2027
1996
1971
1960
2118
2024
2076
2081
2094
2052
2097
2079
1988
1985
1983
1952
2010
2025
1958
1959
1932
1920
1942
1832
1737
1840
1791
1780
1823
1790
1769
1806
1805
1806
1760
1850
1748
1716
1766
1778
1709
1772
1803
1883
1813
1730
1791
1773
1767
1778
1753
1799
1786
1792
1810
1804
1796
1780
1820
1808
1788
1745
1758
1824
1776
1805
1825
1791
1745
1729
1775
1791
1752
1808
1806
1792
1686
1686
1738
1729
1772
1694
1704
1739
1725
1716
1709
1733
1724
1667
1731
1726
1764
1736
1748
1646
1731
1647
1679
1700
1651
1650
1680
1669
1623
1631
1588
1662
1665
1680
1665
1685
1665
1651
1671
1612
1659
1661
1630
1685
1716
1641
1723
1735
1714
1718
1687
1667
1691
1641
1701
1672
1609
1624
1649
1614
1679
1678
1685
1665
1722
1619
1620
1661
1686
1656
1637
1623
1680
1645
1660
1645
1638
1538
1615
1656
1565
1621
1571
1553
1590
1553
1552
1569
1635
1648
1600
1652
1595
1584
1604
1632
1582
1578
1577
1601
1628
1600
1625
1587
1583
1567
1533
1646
1559
1610
1568
1542
1522
1533
1480
1438
1467
1472
1487
1511
1497
1463
1476
1536
1497
1479
1465
1450
1552
1473
1468
1556
1534
1546
1539
1500
1481
1573
1533
1510
1465
1471
1512
1516
1478
1398
1449
1491
1552
1508
1534
1486
1535
1459
1430
1523
1517
1462
1422
1368
1453
1482
1494
1453
1388
1441
1398
1451
1423
1447
1402
1411
1464
1457
1444
1440
1406
1415
1409
1352
1377
1361
1384
1352
1378
1394
1355
1374
1349
1386
1434
1385
1403
1364
1344
1390
1388
1310
1335
1392
1351
1394
1331
1313
1335
1365
1380
1331
1381
1363
1393
1404
1300
1320
1334
1340
1421
1377
1323
1337
1312
1305
1298
1291
1270
1274
1264
1289
1217
1226
1319
1275
1252
1309
1309
1313
1271
1327
1300
1298
1308
1292
1301
1265
1249
1242
1258
1301
1271
1291
1264
1241
1253
1264
1260
1249
1248
1228
1292
1301
1234
1247
1289
1259
1230
1204
1281
1253
1213
1255
1227
1214
1238
1182
1219
1248
1225
1236
1207
1287
1178
1248
1242
1249
1186
1227
1189
1226
1284
1239
1246
1201
1197
1210
1229
1153
1217
1223
1219
1222
1236
1237
1232
1196
1241
1215
1183
1226
1241
1200
1179
1165
1263
1271
1220
1259
1258
1208
1235
1250
1197
1179
1205
1215
1171
1122
1157
1140
1171
1178
1155
1200
1169
1144
1180
1211
1202
1202
1161
1182
1145
1118
1182
1202
1134
1109
1175
1171
1231
1174
1212
1178
1141
1136
1170
1105
1138
1097
1153
1105
1085
1123
1152
1144
1088
1123
1073
1090
1077
1177
1106
1078
1153
1115
1115
1091
1090
1089
1114
1090
1040
1049
1083
1111
1074
1038
1103
1014
1057
1080
1089
1111
1080
1082
1049
1087
1096
1113
1062
1057
1059
1020
1071
1054
1025
1030
1029
1005
1034
982
1083
995
1015
1038
982
1044
1035
1080
999
1057
1043
1009
1010
1045
1010
972
942
959
966
1020
1001
1023
978
995
995
1061
1013
1027
991
986
931
934
920
923
940
931
909
901
940
927
905
933
936
897
937
888
955
917
973
964
973
1008
1037
1068
994
969
934
904
842
868
867
834
766
809
795
797
772
750
819
841
784
799
768
736
776
758
740
777
747
793
793
807
787
795
791
752
788
817
779
763
774
787
780
806
824
821
793
848
786
823
808
757
755
776
792
740
793
776
788
803
790
757
817
794
790
790
754
755
779
771
748
787
807
781
756
758
802
787
781
797
776
772
799
796
785
773
812
786
762
778
796
738
801
791
785
787
801
767
783
771
755
840
804
810
802
812
762
787
816
806
818
785
780
760
779
828
774
766
741
753
773
769
744
789
770
779
744
749
822
805
772
769
730
800
796
758
764
780
762
770
795
745
785
818
800
770
754
784
777
805
765
806
737
781
752
784
745
752
781
780
771
796
778
764
747
801
810
761
796
786
793
774
779
755
772
812
786
735
749
761
760
794
758
772
760
784
795
725
748
760
759
774
757
770
792
810
773
738
757
751
789
755
794
764
751
789
759
754
780
735
789
766
747
762
742
743
774
788
751
755
774
766
758
760
759
743
727
756
771
745
758
755
729
747
731
738
746
699
697
720
743
721
707
758
722
777
710
766
731
754
775
767
796
815
746
723
750
707
710
722
682
742
716
641
649
716
718
710
719
699
767
806
773
790
736
731
688
681
690
712
713
715
704
661
704
719
661
698
671
686
667
645
634
677
676
659
661
659
635
639
671
678
683
673
666
718
665
693
731
676
691
722
720
711
740
722
699
688
655
690
727
729
686
703
638
640
655
644
648
646
646
645
602
609
612
598
579
585
571
553
552
527
513
491
495
465
471
450
490
428
427
429
487
432
437
442
485
571
773
1053
1354
1803
1968
1800
1515
1279
960
597
449
387
342
363
394
404
367
385
364
367
396
406
384
394
349
385
413
391
348
368
369
416
401
369
391
386
370
366
376
349
385
382
408
408
360
369
347
385
404
357
343
381
384
376
383
358
367
365
373
399
368
396
403
423
393
405
385
388
393
387
403
435
448
442
452
425
399
396
396
344
376
380
368
387
363
369
375
394
366
363
355
374
391
365
364
350
347
351
392
381
375
358
353
377
357
361
402
368
368
390
372
371
378
387
368
376
379
392
389
373
366
335
381
378
394
371
363
373
384
392
358
417
403
362
373
395
392
430
386
429
375
343
407
370
395
366
403
390
349
386
386
370
364
424
402
361
376
394
383
382
392
369
396
409
374
365
388
386
394
372
392
386
383
369
410
420
403
417
406
388
395
411
418
394
400
406
400
429
472
448
449
468
456
423
424
387
388
422
405
383
355
380
415
402
398
385
364
389
409
388
395
389
434
424
402
361
372
391
397
407
394
401
380
376
385
407
383
370
399
394
362
376
399
378
386
365
391
394
384
397
405
405
365
398
372
386
431
381
340
402
421
451
441
437
459
446
408
407
411
391
391
413
430
404
417
395
415
428
465
424
429
396
398
380
364
412
386
394
374
386
425
400
438
396
392
417
412
412
431
451
443
384
442
402
387
422
398
407
406
412
406
414
390
402
427
418
410
397
434
430
449
438
454
451
437
428
424
432
459
406
398
383
457
473
436
439
444
449
442
404
445
424
390
445
423
446
448
446
423
440
433
443
413
425
422
414
438
436
437
454
436
435
469
433
407
423
435
428
433
460
454
463
448
491
566
569
558
526
473
479
510
579
696
659
629
498
440
471
449
417
421
429
419
422
416
403
448
457
441
420
397
421
396
466
433
411
449
444
427
448
460
468
457
460
433
428
465
455
415
427
485
447
422
458
424
478
475
494
441
425
441
448
469
486
492
453
469
442
448
465
452
453
473
495
471
455
463
457
450
464
464
454
528
493
508
472
470
470
467
463
519
529
539
484
534
518
521
476
480
501
508
467
504
480
440
440
447
417
407
370
377
413
406
378
347
346
361
348
325
335
341
341
344
298
274
291
285
278
309
351
408
408
388
384
499
757
1570
2444
2745
2256
1425
687
348
237
258
237
226
219
238
221
260
227
221
215
209
227
221
236
223
217
207
223
230
227
238
230
229
235
223
249
222
221
229
225
213
214
209
204
213
204
228
223
207
230
239
219
221
220
217
208
233
231
206
249
230
212
224
209
215
219
210
214
238
263
226
228
210
238
259
207
206
222
223
226
219
216
234
205
226
240
226
222
232
218
234
215
212
223
224
211
210
208
212
226
209
214
230
198
221
210
246
276
255
258
268
254
238
230
240
232
239
215
226
234
230
226
205
235
232
199
208
205
225
224
234
247
227
230
216
211
206
210
198
205
222
204
205
202
196
192
216
210
216
201
228
233
217
207
200
191
206
216
221
226
212
192
215
234
198
237
245
217
213
221
196
205
228
221
233
233
227
229
224
233
209
226
218
225
205
200
204
212
210
190
226
209
218
233
195
216
217
208
230
206
213
215
227
211
210
245
220
205
179
191
205
229
207
197
196
195
208
182
217
199
201
208
237
203
206
188
232
202
207
227
201
207
204
234
253
246
269
288
266
236
221
187
218
161
194
206
189
185
191
186
206
197
197
196
220
206
193
201
197
209
200
212
191
179
190
216
237
218
186
200
197
198
186
214
205
180
210
192
191
167
168
179
189
197
193
211
175
191
203
192
192
195
180
182
183
191
189
183
166
195
199
214
171
185
189
178
189
171
187
183
187
196
192
185
166
194
180
189
179
177
181
199
173
194
178
173
168
157
172
161
157
179
166
159
168
159
165
182
165
177
178
182
217
160
168
181
171
186
164
151
170
182
170
150
144
169
174
163
173
156
174
152
152
160
143
170
168
163
182
194
185
164
154
159
178
173
174
153
166
165
174
169
156
162
175
177
163
158
142
166
133
149
152
152
151
152
131
131
142
143
121
114
127
125
131
147
139
142
146
131
124
113
137
148
129
141
154
128
112
127
136
117
117
139
125
137
112
109
130
118
108
114
112
102
105
112
112
110
123
108
108
111
99
111
127
123
121
116
109
111
99
98
90
98
98
100
106
98
118
135
135
136
138
144
129
109
88
87
89
83
73
67
66
68
71
60
66
67
73
76
68
49
72
64
86
99
109
109
72
68
53
53
48
60
52
48
54
52
42
47
42
43
36
53
37
51
41
58
55
48
55
49
51
45
51
56
41
61
56
62
66
74
100
100
94
78
71
64
61
55
76
57
51
46
59
41
39
40
36
49
46
44
42
40
40
49
48
38
30
32
39
34
34
26
23
22
19
30
27
30
33
23
30
36
22
20
19
18
22
16
8
8
6


2022
8
9
12
0
0
0
1
O
XPS

1486.7
300.0
1E37
1E37
1E37
1E37
FAT
20.00
5.0
4.500
1E37
2400
1200
1E37
1E37


-1
kinetic energy
eV
948.7
0.100
1
count rate
c/s
pulse counting
0.200
4
70E-9
1E37
1E37
1E37
0
121
305
1861
415
395
359
374
401
397
409
368
397
358
425
430
382
362
443
373
419
378
412
420
393
402
384
401
362
375
353
386
375
371
375
397
382
396
386
372
384
406
393
383
441
462
478
479
524
540
563
615
652
724
743
803
798
906
972
1007
1036
1122
1230
1333
1360
1397
1492
1615
1623
1753
1794
1861
1772
1773
1726
1719
1613
1578
1536
1437
1371
1252
1283
1229
1237
1164
1143
1096
1088
1056
1017
943
842
781
750
635
548
508
461
420
405
418
383
362
347
374
315
347
335
305
347
341
322
363
348
348
318
353
345
326
338
325
344
326
342


2022
8
9
12
0
0
0
1
C
XPS

1486.7
300.0
1E37
1E37
1E37
1E37
FAT
20.00
5.0
4.500
1E37
2400
1200
1E37
1E37


-1
kinetic energy
eV
1197.7
0.100
1
count rate
c/s
pulse counting
0.200
2
70E-9
1E37
1E37
1E37
0
91
99
1470
176
160
136
151
164
186
174
211
207
192
197
184
163
181
178
181
177
172
194
167
159
198
158
178
165
174
168
221
231
199
238
277
291
325
337
442
549
580
750
868
989
1078
1189
1230
1403
1444
1470
1426
1373
1332
1201
1093
992
988
897
846
793
732
629
543
473
393
362
303
249
227
198
181
148
142
147
125
130
112
110
111
107
114
117
113
110
108
112
112
108
108
99
109
103
105
102


2022
8
9
12
0
0
0
1
Cr
XPS

1486.7
300.0
1E37
1E37
1E37
1E37
FAT
20.00
5.0
4.500
1E37
2400
1200
1E37
1E37


-1
kinetic energy
eV
888.7
0.100
1
count rate
c/s
pulse counting
0.200
18
70E-9
1E37
1E37
1E37
0
291
2522
3097
2807
2849
2889
2787
2804
2861
2909
2873
2871
2891
2855
2882
2818
2773
2810
2876
2872
2899
2803
2872
2868
2882
2862
2773
2796
2829
2839
2788
2792
2798
2834
2850
2781
2826
2796
2897
2795
2850
2817
2737
2858
2786
2890
2822
2854
2810
2766
2918
2853
2827
2772
2791
2746
2783
2767
2850
2809
2741
2743
2846
2826
2821
2810
2736
2747
2797
2837
2764
2764
2759
2710
2757
2742
2831
2808
2743
2818
2832
2784
2879
2781
2786
2734
2766
2804
2801
2769
2877
2866
2807
2832
2804
2830
2744
2743
2798
2847
2770
2777
2856
2853
2787
2818
2860
2911
2791
2868
2796
2843
2797
2904
2939
2932
2887
2899
2855
2973
2965
2882
2935
2935
2871
2910
2828
2875
2904
2855
2886
2947
2941
2830
2848
2857
2857
2782
2770
2830
2785
2867
2776
2778
2793
2778
2702
2746
2709
2666
2729
2737
2732
2706
2772
2733
2727
2706
2686
2744
2737
2799
2712
2725
2783
2710
2803
2812
2806
2706
2774
2800
2764
2749
2747
2732
2728
2784
2667
2696
2737
2692
2694
2660
2757
2764
2737
2718
2748
2758
2748
2691
2793
2841
2787
2798
2735
2795
2831
2845
2768
2806
2838
2819
2831
2839
2786
2905
2850
2928
2846
2946
3008
2959
2956
2883
2982
3069
3097
3079
3026
3059
3056
3015
3003
3025
2923
2956
2975
2939
2970
2899
2958
2890
2796
2719
2648
2779
2769
2743
2662
2588
2613
2636
2626
2626
2630
2658
2705
2704
2628
2665
2720
2679
2621
2577
2574
2618
2627
2671
2672
2727
2653
2567
2687
2688
2679
2644
2633
2610
2723
2651
2581
2614
2595
2546
2690
2709
2640
2681
2583
2603
2569
2526
2584
2529
2606
2682
2587
2630
2654
2522
2654
2621


2022
8
9
12
0
0
0
1
Fe
XPS

1486.7
300.0
1E37
1E37
1E37
1E37
FAT
20.00
5.0
4.500
1E37
2400
1200
1E37
1E37


-1
kinetic energy
eV
755.7
0.100
1
count rate
c/s
pulse counting
0.200
20
70E-9
1E37
1E37
1E37
0
281
3150
4343
4202
4162
4138
4100
4183
4206
4141
4248
4195
4174
4155
4112
4217
4092
4162
4092
4094
4195
4095
4123
4146
4110
4082
4127
4043
4155
4162
4186
4195
4157
4120
4113
4073
4187
4170
4070
4259
4164
4060
4116
4155
4186
4241
4108
4120
4049
4155
4206
4114
4162
4136
4158
4180
4215
4303
4261
4286
4270
4310
4259
4244
4200
4263
4239
4254
4200
4273
4301
4343
4330
4205
4181
4176
4265
4282
4174
4210
4195
4143
4154
4053
3986
4076
4114
4158
3949
4072
4048
4021
3942
3912
3902
3944
4009
3921
3948
3843
3981
3820
3852
3891
3957
3843
3953
3919
3794
3830
3897
3840
3770
3784
3892
3857
3803
3802
3891
3801
3816
3901
3843
3846
3797
3910
3955
3932
3893
3892
3831
3827
3919
3946
3772
3807
3797
3797
3880
3741
3797
3800
3745
3745
3680
3805
3780
3788
3765
3780
3772
3836
3699
3722
3762
3819
3767
3746
3781
3753
3769
3841
3785
3816
3768
3837
3762
3814
3785
3842
3714
3769
3858
3920
3856
3926
3899
3867
3874
3951
3874
3933
3911
3944
3960
3993
3976
4035
4031
4090
4062
4126
4131
4201
4130
4274
4151
4226
4173
4203
4209
4225
4245
4146
4247
4265
4266
4219
4326
4266
4334
4215
4253
4260
4128
4097
4088
4136
4083
3931
3916
3836
3721
3696
3635
3548
3550
3447
3545
3540
3477
3395
3365
3389
3402
3337
3326
3398
3384
3317
3365
3316
3330
3332
3308
3363
3274
3298
3375
3378
3302
3429
3301
3282
3285
3221
3368
3267
3286
3275
3311
3243
3217
3248
3266
3189
3243
3210
3150
3303
3209
3213
3200
3195
3259
3206
3219
3243
3354
3287
3219
3224
3204
3257
end of experiment
