VAMAS Surface Chemical Analysis Standard Data Transfer Format 1988 May 4




1
Experiment Type: XPS
NORM
REGULAR
6
0
0
0
0
0
6


2022
8
8
11
35
58
0
0
XPS

1486.7
300.0
1E37
1E37
1E37
1E37
FAT
50.00
5.0
4.500
1E37
2400
1200
1E37
1E37


-1
kinetic energy
eV
100.0
0.5
1
count rate
c/s
pulse counting
0.200
1
70E-9
1E37
1E37
1E37
0
2774
0
5191
3564
3596
3552
3605
3601
3567
3603
3636
3536
3601
3566
3536
3558
3438
3492
3514
3471
3480
3516
3467
3397
3409
3404
3491
3414
3531
3439
3440
3470
3390
3465
3428
3370
3534
3391
3442
3391
3422
3405
3381
3439
3408
3302
3356
3410
3350
3354
3320
3372
3391
3352
3335
3325
3314
3348
3282
3341
3317
3348
3337
3253
3332
3270
3306
3286
3352
3340
3352
3300
3270
3261
3325
3269
3236
3255
3226
3303
3335
3224
3294
3313
3227
3315
3305
3208
3250
3246
3320
3227
3311
3230
3304
3222
3248
3284
3264
3252
3285
3145
3173
3159
3166
3136
3135
3138
3200
3214
3140
3143
3157
3217
3194
3191
3263
3154
3241
3165
3186
3178
3168
3198
3241
3287
3165
3133
3161
3132
3180
3241
3189
3120
3183
3166
3126
3104
3116
3166
3156
3167
3109
3191
3125
3079
3163
3114
3127
3141
3157
3128
3150
3083
3184
3081
3175
3201
3100
3182
3142
3176
3124
3049
3135
3213
3177
3144
3191
3229
3145
3161
3142
3167
3086
3120
3201
3173
3080
3049
3090
3124
3123
3100
3053
3142
3088
3184
3061
3097
3176
3129
3107
3053
3116
3125
3189
3075
3186
3081
3066
3082
3005
3108
3109
3077
3239
3156
3170
3188
3084
3058
3106
3173
3078
3133
3144
3153
3137
3160
3202
3088
3165
3120
3182
3075
3074
3052
3116
3121
3174
3105
3176
3113
3092
3172
3097
3122
3104
3168
3123
3205
3219
3217
3164
3040
3123
3102
3169
3123
3075
3102
3180
3276
3216
3137
3140
3126
3107
3173
3144
3180
3165
3141
3161
3144
3176
3184
3153
3179
3211
3132
3188
3227
3084
3132
3183
3167
3155
3218
3210
3339
3256
3188
3231
3260
3299
3249
3219
3322
3355
3320
3287
3271
3236
3288
3226
3205
3216
3217
3204
3279
3232
3118
3185
3240
3290
3296
3303
3350
3385
3305
3307
3321
3420
3383
3284
3368
3460
3340
3270
3248
3284
3310
3342
3376
3361
3446
3543
3419
3455
3318
3333
3234
3251
3211
3136
3107
3118
3085
2966
2952
3021
2945
2995
2937
2878
2863
2841
2805
2816
2836
2838
2744
2824
2767
2798
2765
2721
2754
2759
2810
2711
2792
2835
2785
2760
2695
2726
2750
2758
2729
2795
2797
2806
2834
2798
2842
2858
2875
2851
2827
2848
2927
2924
2932
2899
2854
2771
2841
2793
2843
2757
2660
2717
2682
2762
2737
2753
2792
2690
2733
2669
2643
2672
2634
2735
2734
2705
2681
2679
2739
2776
2766
2667
2628
2738
2672
2696
2672
2694
2648
2689
2704
2724
2689
2672
2607
2644
2639
2717
2743
2758
2716
2734
2733
2688
2734
2758
2650
2679
2633
2683
2711
2720
2741
2743
2766
2783
2732
2720
2676
2738
2728
2635
2740
2739
2725
2666
2767
2739
2682
2796
2656
2840
2754
2718
2641
2690
2705
2719
2810
2746
2790
2775
2804
2769
2814
2698
2685
2764
2776
2751
2655
2777
2696
2836
2771
2742
2730
2701
2716
2714
2783
2717
2730
2788
2728
2760
2760
2745
2735
2701
2717
2758
2734
2831
2746
2745
2743
2769
2748
2770
2772
2728
2704
2739
2820
2751
2760
2788
2753
2748
2736
2804
2806
2828
2824
2764
2743
2810
2752
2711
2766
2771
2789
2786
2800
2786
2750
2836
2822
2815
2793
2752
2766
2796
2794
2847
2728
2807
2775
2802
2860
2820
2732
2856
2897
2787
2786
2704
2756
2800
2719
2823
2759
2776
2772
2764
2721
2693
2821
2793
2769
2784
2846
2744
2813
2796
2775
2841
2834
2796
2830
2808
2861
2805
2856
2797
2838
2858
2832
2814
2866
2834
2788
2793
2883
2880
2919
2923
2795
2831
2854
2862
2802
2903
2916
2848
2822
2841
2797
2867
2900
2774
2851
2864
2768
2801
2797
2797
2874
2812
2857
2887
2874
2834
2855
2907
2839
2885
2991
3017
2952
3077
2927
2944
2947
2898
2898
2931
2868
2893
3000
2955
2878
2848
2872
2932
2927
2948
2893
2889
2861
2852
2810
2947
2882
2863
2836
2880
2831
2782
2744
2834
2764
2816
2711
2862
2802
2859
2687
2787
2767
2721
2733
2747
2713
2768
2742
2719
2885
2968
3185
3564
3943
4141
4044
3688
3294
2946
2767
2814
2748
2778
2804
2834
2770
2714
2636
2648
2665
2664
2711
2631
2597
2707
2605
2568
2573
2503
2497
2569
2547
2471
2485
2413
2448
2465
2294
2324
2378
2353
2317
2354
2375
2471
2562
2710
3102
3803
4639
5191
4954
4178
3393
2887
2471
2478
2403
2319
2331
2343
2393
2325
2361
2336
2300
2315
2336
2345
2263
2332
2342
2272
2355
2350
2286
2343
2284
2326
2321
2343
2419
2320
2296
2334
2369
2267
2304
2342
2370
2365
2401
2394
2407
2366
2433
2335
2415
2361
2283
2375
2358
2296
2283
2306
2325
2328
2374
2233
2248
2223
2280
2247
2196
2291
2235
2174
2246
2257
2215
2174
2166
2222
2190
2256
2204
2153
2211
2188
2278
2288
2245
2315
2271
2305
2390
2344
2375
2431
2479
2422
2384
2342
2283
2268
2259
2233
2223
2204
2234
2312
2186
2247
2111
2165
2138
2132
2047
1995
2022
2002
1985
2007
1998
1958
2004
2037
1958
1981
1982
1991
2012
1966
1996
1959
1929
1952
1971
1996
1960
1972
1951
1905
1886
1962
1998
1963
1989
2021
1923
1917
2004
1986
1988
1959
2018
2003
1932
1953
1952
1969
1937
1979
1966
1944
1968
1973
1984
1999
1951
1905
1955
1963
1912
1873
2033
1964
1926
1961
1969
1924
1991
1945
1964
1993
1926
1920
2017
1912
1947
2009
1933
1935
2019
1933
2000
1920
1917
1926
1944
2108
2036
1924
2021
1987
1938
2008
1936
1912
1938
1976
1985
1980
2007
2030
1997
1999
1990
1996
2005
2051
1964
1915
1949
2015
1946
1913
1984
1915
1952
2022
1989
1930
1932
1931
2007
1980
1960
1982
2008
1942
1933
2045
2000
1979
1951
1952
1837
1930
1951
1969
2009
1986
2065
2002
1987
2031
1932
1935
2028
1887
2003
1985
1980
2014
2004
2028
1980
1964
1974
1936
1997
1959
2015
1992
1964
1939
1885
1984
1970
2046
1968
1884
2005
1962
1981
1995
1991
1993
2012
2032
2040
1945
1916
1954
1948
1938
1916
2045
1989
1954
1964
1897
1954
1938
1946
2018
1944
2018
2017
1971
1945
1980
1982
1993
2041
1944
1957
1934
1928
1965
2036
1989
2010
1934
1932
1915
2000
1936
2026
2009
1976
1911
1983
2004
2019
2010
1971
1971
2002
2018
1952
1994
1964
2040
2009
2018
1961
1968
2025
2045
1977
1933
1927
1950
1934
1947
2012
1988
1986
1990
1988
2026
1975
1982
2006
1971
1995
1987
2048
1995
2009
1944
1958
1943
1885
1981
2019
1926
1954
2007
1977
1952
2020
1987
1996
1986
1962
1997
1937
1978
1972
1965
2034
2023
2037
2022
1997
2002
1926
1965
1994
1998
2024
2021
2075
2037
2066
2003
2003
1920
2009
1959
1938
1979
1985
1971
1937
1961
1955
2010
2021
1977
2033
1921
1920
1981
2022
1971
1958
2068
2011
1968
1970
1953
1943
1975
1970
1986
2060
2015
1987
2005
1974
1985
1972
1932
2003
1976
1992
2042
1990
2002
2034
2025
2055
2033
2035
1983
1989
1993
1970
2043
2001
2060
1967
1997
2022
2001
2047
2036
2047
2040
1962
1935
2015
1996
2032
2042
2016
2025
2031
2016
1994
1917
1941
1955
1981
1952
1987
1974
2046
1998
1999
2013
2038
1992
1941
1932
1972
1991
1981
2040
2065
1948
1968
1988
2004
1993
1948
1975
1970
1957
2034
2017
1989
2021
1931
1995
1964
2021
1968
1991
2029
2062
1945
1965
1989
1944
2019
2019
2028
1872
2019
2093
2079
2060
1990
1983
2079
1969
1907
2029
2056
2005
2035
2010
2007
1961
1951
2004
2018
2005
2001
1995
1984
1993
1996
2021
1986
1997
1983
2030
1959
2012
2025
2039
1986
2016
1935
1996
1961
1972
2058
1998
2009
2099
2013
2093
1983
2016
1966
1988
1947
2041
1954
1987
2013
1980
2002
2050
2083
2038
2030
2027
1977
2009
2004
2039
2015
1994
1984
2010
1994
1988
2035
2016
1949
1994
1975
1964
1997
2034
1991
1971
2052
1953
1964
1911
1969
1992
1980
1990
1952
1996
1979
1983
1949
1925
1949
2039
2012
1970
1926
1992
1932
1983
1962
1941
1969
1927
1977
1958
2000
1968
2052
1988
1956
1958
1982
1916
1943
1983
1972
1922
1883
1904
1908
1977
2010
1935
1970
2009
1936
1964
1927
1894
1877
1932
1984
2004
1959
1925
1947
1899
1917
1926
2004
1927
1954
2002
1972
1962
1926
1915
1918
1903
1880
1893
1907
1899
1963
1982
1922
1891
1963
1898
1988
1943
1918
1875
1889
1889
1891
1852
1980
1943
1951
1922
1914
1946
1929
1964
1934
1932
1939
1932
1905
1878
1964
1901
1971
1933
1885
1906
1896
1944
1975
1881
1960
1986
1935
1865
1882
1910
1814
1870
1919
1935
1864
1874
1898
1949
1870
1877
1898
1836
1894
1882
1852
1891
1818
1846
1770
1851
1868
1825
1771
1821
1786
1842
1832
1798
1777
1810
1803
1816
1786
1804
1797
1845
1845
1773
1710
1776
1863
1816
1811
1745
1701
1814
1748
1741
1794
1758
1833
1774
1765
1736
1801
1738
1695
1745
1791
1685
1718
1756
1699
1746
1710
1732
1756
1729
1781
1713
1728
1736
1767
1730
1714
1721
1718
1755
1655
1750
1753
1726
1694
1685
1724
1783
1712
1733
1703
1732
1689
1638
1680
1689
1732
1709
1765
1779
1704
1709
1730
1736
1704
1738
1706
1751
1749
1677
1694
1677
1724
1762
1680
1666
1711
1707
1680
1609
1663
1715
1681
1712
1672
1596
1695
1835
1733
1706
1702
1689
1678
1658
1674
1586
1666
1740
1688
1726
1711
1720
1699
1763
1791
1829
1770
1732
1782
1729
1740
1726
1698
1678
1732
1621
1650
1542
1669
1641
1698
1688
1627
1714
1694
1670
1698
1616
1609
1645
1583
1605
1560
1533
1505
1590
1484
1507
1565
1505
1520
1529
1452
1530
1524
1499
1521
1571
1496
1524
1568
1593
1559
1571
1474
1537
1498
1543
1493
1559
1486
1470
1512
1506
1550
1540
1532
1507
1500
1533
1486
1505
1505
1541
1449
1419
1444
1431
1416
1381
1448
1438
1421
1391
1342
1406
1376
1378
1336
1316
1286
1271
1235
1246
1199
1173
1223
1166
1148
1084
1093
1083
1049
1080
1036
1032
1042
1055
1126
1088
1242
1441
1925
2672
3176
3505
3622
2991
2191
1574
1392
1122
1089
1062
985
963
990
961
986
1001
1004
979
1022
1052
974
984
1042
1018
1011
988
972
975
975
989
1014
955
998
981
959
958
1010
946
954
918
939
932
943
942
968
959
933
894
932
913
928
899
893
919
929
966
940
923
906
897
929
970
1040
1118
1206
1310
1361
1334
1352
1256
1280
1172
1068
1020
978
889
889
854
798
787
768
779
740
728
710
677
722
693
699
694
666
678
720
699
704
723
634
713
696
673
669
711
635
646
680
718
659
688
727
723
788
841
847
850
861
785
796
769
686
705
669
646
644
641
601
602
618
596
594
604
563
586
580
568
618
587
627
618
601
605
581
599
578
657
599
604
587
606
627
604
572
578
586
612
628
561
584
566
562
608
610
601
639
613
625
645
602
561
545
605
608
602
593
616
619
573
590
591
597
612
592
602
616
599
632
637
645
629
644
613
595
586
605
606
585
627
618
604
578
565
574
621
558
621
584
573
600
627
569
599
570
592
596
574
579
570
597
608
568
574
590
617
625
627
597
590
561
593
609
561
570
604
628
591
618
567
596
601
603
601
560
591
624
606
568
591
603
630
654
616
644
627
609
584
614
646
625
586
602
624
547
582
610
638
608
643
669
637
648
632
631
624
578
636
638
624
618
602
616
592
576
597
619
640
568
611
605
605
602
589
593
618
594
607
609
585
587
590
630
616
587
583
607
669
615
599
561
622
629
615
619
652
647
619
608
601
645
644
621
608
603
628
645
624
629
603
642
606
633
674
642
633
608
615
620
594
606
601
625
661
657
633
646
664
633
627
674
613
599
639
648
674
640
639
604
603
628
624
644
650
634
692
702
668
665
634
634
717
739
805
807
736
677
610
657
635
627
622
620
613
620
678
646
631
636
650
660
616
643
635
651
595
611
636
636
585
647
609
612
636
663
654
652
687
638
669
690
634
660
682
678
652
643
665
652
662
659
677
696
643
657
693
634
644
650
671
671
663
685
647
677
668
660
631
660
643
686
651
656
692
725
691
658
694
666
727
721
688
710
759
735
755
730
772
746
738
735
668
708
691
672
631
562
642
571
593
578
555
530
526
501
490
440
419
430
431
417
375
365
346
346
351
329
333
367
458
506
609
615
615
607
840
1471
2493
3505
3626
3005
1941
977
540
348
261
299
277
265
247
264
242
250
249
267
275
265
263
259
266
271
274
248
262
248
239
273
288
249
274
272
279
273
240
258
278
261
275
275
266
233
265
257
257
264
243
254
257
270
264
261
259
257
245
251
268
267
258
259
265
241
271
272
251
256
234
243
238
252
279
254
265
254
284
267
258
269
265
294
253
244
283
264
259
250
248
241
262
263
249
259
260
255
245
247
247
234
249
274
254
250
247
295
292
272
263
272
278
252
242
248
263
243
263
231
249
272
261
259
239
240
264
262
289
263
248
280
264
273
247
254
257
236
254
278
264
260
238
275
256
249
277
242
234
241
253
257
269
276
238
236
235
270
259
257
250
219
245
260
270
246
268
302
252
266
264
250
268
280
275
248
229
299
274
291
289
261
273
286
267
261
249
247
266
274
258
259
234
259
243
260
253
286
251
260
268
248
249
255
271
270
248
274
253
270
261
246
241
258
244
269
257
253
259
232
254
222
256
235
256
271
246
251
249
247
262
254
273
245
244
255
256
263
266
252
245
260
236
251
250
267
245
272
244
243
265
241
243
262
265
255
256
251
280
255
280
275
242
240
297
248
259
276
272
301
262
265
251
237
221
217
218
234
245
216
231
210
209
222
252
240
260
224
231
250
279
303
325
335
357
319
341
283
318
261
242
251
229
204
211
207
201
217
207
227
213
218
226
175
178
180
221
204
211
231
223
209
206
217
221
197
226
206
208
227
219
213
191
193
216
211
205
230
237
224
206
206
235
200
204
205
209
205
232
203
195
218
205
221
210
209
218
198
198
232
212
182
200
210
188
204
202
222
209
208
214
200
188
172
156
155
145
149
144
137
121
147
152
134
169
170
209
224
256
258
281
355
379
390
419
434
444
370
362
317
261
231
174
160
138
124
102
114
99
106
94
112
122
85
101
91
97
102
85
98
100
83
90
95
90
93
98
87
86
97
104
83
102
77
84
82
99
89
86
87
78
76
76
79
107
101
89
89
104
93
95
94
95
116
100
93
90
96
89
93
84
87
97
83
80
108
93
93
97
89
85
99
88
89
86
92
101
92
85
92
92
84
97
84
89
99
93
106
93
80
92
80
81
78
82
74
71
76
85
83
83
85
77
73
91
78
87
86
80
85
89
93
89
97
104
92
100
92
107
93
108
105
113
124
111
112
107
81
75
72
76
76
57
68
64
57
70
68
60
52
44
46
41
45
39
43
70
67
84
115
167
190
201
210
215
189
136
127
89
48
32
32
48
44
36
28
20
12
9
5
3
4
1
0
1
0
0


2022
8
8
11
35
58
0
1
O
XPS

1486.7
300.0
1E37
1E37
1E37
1E37
FAT
20.00
5.0
4.500
1E37
2400
1200
1E37
1E37


-1
kinetic energy
eV
948.7
0.100
1
count rate
c/s
pulse counting
0.200
5
70E-9
1E37
1E37
1E37
0
121
1131
4369
1265
1233
1351
1293
1167
1228
1260
1291
1281
1290
1258
1221
1270
1283
1282
1291
1276
1306
1338
1361
1353
1349
1457
1503
1539
1587
1602
1648
1727
1785
1916
2005
2170
2360
2480
2607
2884
3011
3148
3338
3530
3685
3863
3957
4098
4203
4258
4274
4341
4369
4369
4274
4184
4121
4095
3859
3589
3476
3287
3126
2868
2647
2524
2374
2190
2013
1902
1773
1675
1603
1502
1501
1461
1455
1408
1427
1384
1389
1379
1276
1315
1290
1286
1310
1240
1203
1186
1191
1186
1214
1224
1238
1212
1153
1153
1188
1259
1219
1169
1200
1254
1227
1235
1164
1219
1245
1205
1194
1160
1171
1222
1177
1191
1223
1201
1131
1168
1169
1232
1184
1182


2022
8
8
11
35
58
0
1
C
XPS

1486.7
300.0
1E37
1E37
1E37
1E37
FAT
20.00
5.0
4.500
1E37
2400
1200
1E37
1E37


-1
kinetic energy
eV
1194.7
0.100
1
count rate
c/s
pulse counting
0.200
1
70E-9
1E37
1E37
1E37
0
111
56
983
71
91
85
81
80
77
98
90
92
116
106
123
111
139
126
157
145
138
142
130
140
141
126
143
152
157
150
159
144
129
136
147
134
156
153
162
142
151
169
204
220
245
297
325
363
492
481
552
604
707
774
808
889
940
951
969
952
983
934
951
895
810
752
728
649
554
515
426
381
380
279
253
203
192
180
154
116
99
110
110
90
92
93
74
78
70
68
68
77
67
71
83
63
68
59
67
70
62
67
68
74
67
56
71
68
64
72
70
57
59
60


2022
8
8
11
35
58
0
1
Zn
XPS

1486.7
300.0
1E37
1E37
1E37
1E37
FAT
20.00
5.0
4.500
1E37
2400
1200
1E37
1E37


-1
kinetic energy
eV
433.7
0.100
1
count rate
c/s
pulse counting
0.200
5
70E-9
1E37
1E37
1E37
0
381
2650
7158
3396
3343
3383
3226
3319
3300
3392
3342
3307
3308
3341
3245
3388
3349
3293
3301
3319
3226
3269
3390
3381
3410
3338
3353
3376
3334
3333
3239
3285
3439
3332
3366
3386
3349
3370
3180
3267
3358
3383
3300
3328
3382
3317
3394
3317
3295
3275
3332
3424
3483
3386
3403
3480
3484
3556
3541
3554
3543
3591
3641
3736
3721
3707
3841
3990
4045
4172
4328
4518
4588
4833
4917
5202
5246
5250
5342
5486
5446
5498
5395
5379
5310
5147
4889
4807
4697
4557
4287
4277
4174
4014
3882
3750
3663
3714
3710
3626
3534
3617
3591
3513
3486
3488
3358
3450
3424
3402
3482
3317
3375
3363
3383
3400
3361
3303
3270
3401
3342
3294
3353
3393
3319
3306
3337
3291
3443
3361
3265
3223
3258
3310
3327
3356
3328
3282
3282
3300
3247
3323
3262
3280
3274
3276
3236
3279
3230
3285
3271
3242
3208
3333
3236
3229
3284
3302
3136
3187
3212
3183
3239
3159
3162
3187
3215
3151
3105
3192
3110
3191
3066
3167
3174
3125
3198
3107
3116
3095
3144
3214
3114
3103
3034
3062
3089
2995
3099
3081
3048
3099
3015
3048
3063
3120
3104
3061
3038
3057
3019
3086
3080
2959
3003
3009
2972
3040
3062
3130
2939
2949
2916
2934
2949
3011
2950
2975
2930
2952
2969
2957
2927
2972
2924
2857
2950
2919
2870
2859
2923
2922
2845
2884
2879
2856
2830
2850
2846
2856
2766
2845
2873
2808
2819
2812
2842
2877
2749
2701
2821
2844
2832
2872
2869
2827
2727
2809
2735
2757
2755
2910
2832
2777
2780
2757
2839
2802
2795
2776
2862
2868
2827
2844
2850
2774
2767
2813
2822
2791
2915
2845
2876
2822
2907
2902
2878
3040
2921
2984
3109
3101
3201
3307
3438
3600
3801
3927
3955
4281
4668
4914
5163
5511
5879
6110
6444
6647
6805
7034
7150
7158
7081
6871
6744
6446
6391
5992
5608
5351
5066
4694
4396
4317
4063
3796
3587
3485
3398
3264
3149
3091
2993
3029
3042
2987
2971
2917
2958
2828
2811
2826
2811
2863
2806
2846
2783
2771
2790
2828
2826
2751
2765
2760
2693
2714
2716
2704
2713
2722
2785
2715
2805
2825
2736
2749
2755
2805
2666
2650
2734
2723
2810
2760
2766
2761
2719
2749
2702
2674
2675
2664
2804
2792


2022
8
8
11
35
58
0
1
Cr
XPS

1486.7
300.0
1E37
1E37
1E37
1E37
FAT
20.00
5.0
4.500
1E37
2400
1200
1E37
1E37


-1
kinetic energy
eV
888.7
0.100
1
count rate
c/s
pulse counting
0.200
25
70E-9
1E37
1E37
1E37
0
291
8826
10912
10131
10206
10269
10043
10196
10256
10120
10399
10276
9992
10259
10164
10129
9928
10034
10079
10012
10022
9991
10127
10035
10125
10123
10196
10130
10237
10138
10116
10152
10142
10160
10215
10026
10104
10133
10071
10171
10209
10051
10081
10054
9920
10290
10147
10082
9979
10079
10143
10166
10002
10037
10036
10100
10152
10071
10084
10222
9958
10095
10092
10242
10169
10095
10058
10120
10075
10196
10275
10219
10366
10148
10224
10291
10423
10303
10502
10375
10363
10364
10480
10444
10516
10427
10565
10432
10507
10708
10656
10763
10620
10738
10707
10802
10714
10791
10794
10881
10711
10820
10906
10794
10840
10903
10784
10869
10912
10771
10607
10821
10707
10740
10868
10672
10656
10650
10487
10566
10585
10463
10446
10490
10349
10548
10485
10308
10161
10289
10291
10231
10188
10145
10297
10073
10166
10167
10267
10046
10075
10099
9849
10180
9883
9942
9848
9824
9847
9883
10003
9882
9960
9807
9766
9910
9992
10024
9943
10020
9976
9908
9920
10111
9800
9961
10103
9874
9828
9982
9995
9970
10073
10078
9894
10021
9956
9937
10192
10142
10121
10145
9974
9962
10142
10124
10274
10280
10235
10146
10146
10239
10178
10180
10279
10083
10171
10095
10237
10087
10045
10169
10166
10085
10198
9980
10061
10046
9922
9861
10013
9914
9836
9793
9635
9686
9828
9704
9735
9676
9729
9679
9777
9726
9701
9500
9554
9634
9615
9704
9536
9633
9586
9330
9420
9492
9465
9367
9377
9354
9394
9305
9467
9375
9376
9302
9459
9274
9351
9182
9314
9111
9136
9162
9187
9185
9029
9029
9141
9113
9168
9060
9232
9027
8985
9116
9166
9161
8861
9044
9009
8896
9030
9064
8950
8934
9160
8955
8970
9083
9027
8911
8948
8919
8947
8949
8826
8924
8880
9000
8990
8870
9011
8986


2022
8
8
11
35
58
0
1
Fe
XPS

1486.7
300.0
1E37
1E37
1E37
1E37
FAT
20.00
5.0
4.500
1E37
2400
1200
1E37
1E37


-1
kinetic energy
eV
755.7
0.100
1
count rate
c/s
pulse counting
0.200
5
70E-9
1E37
1E37
1E37
0
281
2266
2565
2426
2419
2354
2410
2332
2371
2423
2372
2326
2411
2413
2390
2308
2368
2464
2350
2421
2445
2410
2464
2469
2414
2449
2431
2383
2455
2386
2385
2475
2398
2400
2324
2431
2358
2487
2411
2398
2437
2290
2388
2411
2422
2357
2399
2402
2300
2442
2435
2363
2389
2418
2397
2442
2431
2388
2438
2481
2414
2426
2422
2388
2434
2392
2421
2410
2434
2419
2423
2418
2356
2373
2394
2420
2512
2424
2431
2456
2378
2459
2408
2409
2384
2383
2403
2392
2341
2383
2427
2424
2303
2351
2422
2404
2385
2340
2433
2371
2402
2411
2397
2367
2434
2417
2360
2374
2266
2378
2406
2428
2450
2362
2565
2475
2424
2392
2415
2458
2453
2449
2405
2370
2421
2436
2445
2463
2388
2382
2364
2379
2392
2431
2467
2480
2390
2384
2470
2440
2393
2444
2404
2409
2408
2385
2392
2432
2357
2378
2406
2388
2366
2356
2388
2410
2436
2375
2485
2404
2466
2417
2425
2373
2409
2399
2422
2361
2362
2379
2490
2418
2465
2344
2378
2395
2467
2411
2513
2388
2383
2361
2437
2359
2416
2414
2373
2400
2323
2358
2341
2393
2372
2453
2392
2432
2429
2414
2390
2395
2389
2320
2387
2357
2367
2432
2475
2388
2379
2366
2378
2389
2359
2365
2414
2397
2372
2362
2384
2384
2407
2364
2393
2432
2425
2330
2384
2406
2422
2441
2439
2337
2425
2322
2333
2320
2415
2443
2337
2346
2351
2354
2373
2323
2416
2316
2322
2393
2393
2292
2474
2332
2352
2334
2348
2435
2347
2329
2338
2369
2407
2350
2306
2374
2333
2460
2429
2377
2435
2410
2388
2391
2352
2374
2400
2361
2391
2396
2353
2355
2368
2431
2406
2413
end of experiment
