VAMAS Surface Chemical Analysis Standard Data Transfer Format 1988 May 4




1
Experiment Type: XPS
NORM
REGULAR
6
0
0
0
0
0
6


2022
8
8
9
58
5
0
0
XPS

1486.7
300.0
1E37
1E37
1E37
1E37
FAT
50.00
5.0
4.500
1E37
2400
1200
1E37
1E37


-1
kinetic energy
eV
100.0
0.5
1
count rate
c/s
pulse counting
0.200
1
70E-9
1E37
1E37
1E37
0
2774
0
4147
2666
2666
2609
2630
2596
2559
2619
2670
2593
2605
2594
2583
2539
2556
2642
2577
2584
2644
2667
2590
2615
2548
2564
2587
2600
2572
2604
2542
2573
2554
2571
2657
2631
2600
2576
2503
2494
2589
2560
2596
2632
2512
2547
2556
2534
2524
2507
2535
2533
2536
2533
2517
2542
2569
2561
2538
2584
2580
2582
2622
2457
2572
2561
2502
2478
2513
2478
2518
2553
2447
2496
2465
2445
2488
2469
2508
2619
2481
2544
2609
2468
2481
2539
2483
2453
2530
2510
2561
2525
2492
2488
2534
2481
2502
2483
2497
2545
2545
2470
2399
2501
2529
2492
2473
2440
2425
2458
2531
2522
2478
2481
2445
2469
2516
2388
2476
2446
2465
2448
2408
2494
2492
2506
2509
2483
2518
2534
2462
2453
2457
2518
2592
2497
2441
2432
2450
2481
2440
2441
2473
2476
2525
2503
2375
2458
2415
2418
2501
2506
2429
2536
2504
2541
2501
2487
2480
2447
2431
2448
2445
2465
2494
2603
2485
2499
2542
2453
2501
2479
2442
2393
2464
2507
2531
2545
2506
2493
2456
2567
2476
2438
2450
2492
2510
2530
2426
2495
2435
2476
2371
2357
2431
2425
2399
2531
2404
2438
2475
2443
2478
2514
2485
2436
2510
2547
2456
2479
2474
2559
2459
2457
2439
2462
2533
2569
2493
2486
2483
2445
2469
2468
2382
2509
2528
2397
2504
2518
2546
2590
2496
2530
2538
2527
2458
2466
2516
2515
2525
2561
2567
2512
2528
2529
2450
2503
2509
2492
2543
2575
2511
2584
2538
2452
2466
2461
2543
2496
2449
2502
2496
2613
2568
2513
2644
2581
2565
2552
2546
2455
2506
2521
2483
2526
2530
2597
2629
2599
2515
2522
2617
2568
2528
2619
2587
2620
2582
2626
2614
2575
2628
2645
2622
2570
2601
2553
2570
2602
2621
2608
2600
2495
2524
2560
2560
2618
2583
2673
2547
2648
2638
2675
2617
2591
2672
2701
2665
2648
2667
2588
2637
2611
2716
2687
2651
2759
2621
2632
2617
2690
2607
2475
2632
2596
2493
2551
2521
2432
2500
2349
2398
2346
2391
2336
2315
2315
2296
2260
2310
2279
2287
2280
2200
2267
2208
2273
2214
2219
2183
2217
2220
2154
2201
2228
2186
2213
2235
2191
2166
2260
2247
2239
2252
2243
2257
2235
2272
2256
2286
2350
2346
2311
2361
2340
2267
2264
2296
2245
2293
2337
2237
2215
2192
2187
2169
2221
2232
2202
2146
2128
2151
2051
2077
2134
2211
2192
2165
2212
2211
2170
2185
2189
2208
2161
2110
2136
2200
2110
2132
2111
2153
2101
2174
2161
2135
2266
2122
2163
2241
2212
2112
2155
2161
2113
2158
2179
2201
2171
2159
2194
2201
2195
2134
2255
2252
2234
2219
2180
2133
2144
2130
2147
2210
2178
2137
2117
2105
2150
2161
2169
2159
2222
2202
2178
2144
2186
2231
2254
2114
2148
2158
2253
2216
2238
2200
2174
2211
2215
2182
2191
2232
2291
2169
2235
2167
2186
2208
2195
2122
2238
2159
2222
2235
2228
2195
2196
2218
2231
2245
2227
2193
2156
2228
2216
2207
2253
2199
2261
2312
2298
2252
2244
2267
2205
2228
2221
2281
2239
2263
2301
2233
2248
2230
2213
2270
2160
2153
2203
2276
2219
2220
2233
2223
2248
2321
2306
2221
2279
2301
2348
2243
2128
2230
2287
2253
2265
2304
2332
2267
2244
2261
2239
2333
2199
2309
2298
2306
2286
2256
2254
2263
2278
2240
2258
2322
2234
2311
2323
2352
2271
2220
2250
2327
2230
2242
2329
2305
2267
2312
2332
2269
2334
2245
2313
2284
2280
2301
2242
2349
2297
2260
2255
2280
2313
2339
2240
2268
2394
2349
2321
2361
2260
2301
2283
2338
2283
2323
2289
2325
2309
2306
2354
2359
2334
2281
2340
2332
2315
2245
2327
2342
2380
2322
2312
2376
2341
2473
2381
2461
2519
2493
2425
2375
2319
2339
2408
2366
2372
2354
2280
2331
2395
2419
2307
2342
2301
2298
2345
2333
2367
2441
2325
2241
2256
2383
2377
2352
2285
2321
2280
2285
2270
2212
2258
2266
2230
2221
2305
2198
2252
2208
2184
2245
2297
2333
2285
2334
2465
2508
2704
2922
3250
3361
3196
2856
2634
2519
2379
2345
2287
2312
2271
2309
2251
2223
2207
2215
2251
2152
2176
2189
2219
2139
2081
2167
2063
2110
2094
1999
2058
2021
2081
2013
2038
1978
1927
1968
1954
1876
1931
1990
1987
2073
2095
2423
2844
3339
3791
4147
4070
3352
2792
2339
2205
2054
2064
2044
1965
1980
1955
1908
1956
1929
1899
1881
1905
1856
1894
1897
1933
1911
1903
1911
1876
1881
1875
1849
1935
1920
1876
1952
1885
1941
1860
1884
1940
1937
1904
1978
1960
1964
1915
1975
1871
1915
1888
1857
1994
1946
1920
1869
1899
1897
1892
1917
1910
1862
1865
1882
1844
1871
1850
1845
1791
1863
1827
1825
1804
1832
1837
1776
1814
1789
1850
1808
1840
1866
1828
1892
1878
1866
1898
1967
1978
1972
2018
2021
1942
1981
1948
1918
1902
1916
1890
1895
1871
1886
1863
1838
1812
1814
1858
1781
1813
1780
1711
1728
1731
1722
1681
1577
1558
1620
1566
1636
1653
1693
1658
1634
1643
1696
1652
1561
1582
1624
1601
1637
1594
1620
1676
1623
1645
1633
1627
1614
1560
1582
1652
1606
1613
1567
1587
1660
1648
1650
1598
1655
1594
1711
1654
1625
1621
1620
1597
1601
1609
1649
1615
1589
1609
1671
1623
1637
1639
1602
1632
1625
1644
1620
1651
1538
1581
1601
1556
1623
1614
1643
1660
1661
1648
1568
1599
1626
1648
1673
1677
1615
1553
1634
1684
1622
1608
1628
1652
1662
1611
1616
1665
1574
1607
1688
1657
1635
1664
1630
1589
1623
1620
1570
1611
1620
1662
1733
1646
1636
1592
1643
1696
1645
1667
1599
1633
1630
1561
1611
1618
1576
1584
1584
1651
1628
1698
1602
1670
1673
1623
1710
1685
1661
1637
1609
1645
1584
1603
1622
1640
1658
1624
1601
1570
1595
1638
1627
1661
1674
1656
1611
1599
1657
1644
1650
1626
1607
1652
1559
1703
1638
1618
1677
1714
1591
1596
1635
1636
1582
1645
1656
1730
1710
1679
1685
1621
1655
1712
1653
1667
1690
1627
1650
1739
1634
1633
1668
1639
1625
1678
1628
1583
1675
1640
1664
1669
1653
1687
1612
1649
1629
1623
1667
1587
1658
1642
1632
1587
1633
1666
1681
1613
1586
1587
1642
1701
1648
1634
1680
1621
1677
1631
1633
1669
1656
1654
1658
1663
1660
1656
1651
1614
1616
1657
1583
1660
1679
1698
1587
1616
1611
1636
1675
1622
1612
1679
1655
1615
1627
1672
1601
1688
1668
1592
1632
1651
1604
1699
1668
1585
1636
1631
1677
1693
1665
1673
1626
1592
1690
1677
1669
1683
1640
1692
1661
1653
1690
1647
1696
1634
1657
1661
1656
1651
1576
1652
1674
1678
1655
1677
1682
1679
1642
1665
1629
1638
1638
1660
1665
1679
1645
1634
1709
1625
1675
1684
1752
1729
1627
1626
1699
1637
1662
1663
1634
1719
1696
1625
1781
1676
1660
1666
1770
1610
1606
1659
1657
1655
1648
1648
1649
1614
1652
1660
1647
1679
1645
1648
1624
1632
1622
1644
1588
1690
1654
1605
1711
1589
1669
1654
1690
1694
1642
1644
1640
1572
1645
1673
1652
1714
1649
1628
1623
1630
1644
1669
1674
1659
1665
1636
1603
1657
1667
1642
1657
1637
1670
1611
1662
1659
1651
1610
1683
1629
1581
1571
1635
1627
1670
1611
1579
1661
1672
1671
1655
1623
1668
1577
1636
1683
1652
1659
1641
1681
1659
1680
1619
1746
1709
1655
1672
1691
1638
1675
1701
1660
1620
1608
1634
1623
1661
1671
1676
1640
1647
1664
1649
1665
1604
1644
1638
1694
1708
1623
1632
1641
1615
1709
1637
1659
1623
1641
1667
1584
1569
1667
1684
1682
1708
1607
1664
1650
1682
1636
1662
1666
1588
1672
1640
1643
1684
1689
1675
1624
1718
1672
1630
1615
1650
1620
1672
1753
1667
1671
1662
1687
1642
1651
1624
1692
1682
1602
1567
1578
1611
1592
1660
1618
1581
1631
1621
1655
1605
1652
1606
1623
1634
1667
1689
1664
1697
1647
1646
1669
1584
1668
1629
1637
1570
1592
1574
1618
1631
1622
1677
1596
1616
1613
1596
1596
1620
1595
1580
1646
1622
1591
1689
1654
1656
1605
1620
1597
1601
1623
1640
1568
1645
1651
1616
1637
1603
1583
1547
1626
1669
1664
1581
1659
1650
1614
1583
1610
1547
1585
1605
1585
1592
1619
1619
1587
1610
1559
1618
1527
1654
1626
1613
1576
1625
1626
1614
1607
1615
1556
1619
1568
1586
1575
1580
1574
1640
1581
1621
1645
1581
1557
1617
1558
1596
1620
1651
1567
1591
1534
1519
1514
1621
1641
1552
1552
1564
1613
1570
1602
1611
1590
1668
1686
1606
1593
1558
1608
1615
1619
1575
1566
1563
1607
1546
1589
1565
1583
1553
1621
1650
1522
1550
1562
1553
1486
1447
1502
1504
1490
1541
1542
1501
1532
1442
1472
1486
1507
1500
1470
1469
1476
1483
1488
1494
1482
1473
1462
1510
1458
1552
1501
1494
1454
1513
1546
1539
1484
1416
1506
1465
1456
1448
1472
1432
1459
1456
1487
1488
1491
1493
1468
1419
1491
1428
1462
1413
1450
1508
1449
1390
1424
1414
1447
1433
1407
1433
1533
1462
1443
1390
1396
1442
1463
1441
1444
1439
1390
1424
1456
1448
1448
1457
1398
1383
1392
1392
1430
1389
1445
1417
1381
1398
1454
1436
1438
1439
1417
1391
1427
1429
1411
1420
1446
1377
1405
1442
1399
1405
1481
1439
1373
1434
1458
1411
1372
1408
1390
1364
1345
1414
1379
1404
1357
1429
1385
1356
1377
1388
1339
1388
1356
1413
1387
1422
1424
1482
1485
1517
1475
1496
1398
1413
1462
1381
1416
1371
1401
1352
1396
1359
1425
1358
1355
1353
1394
1389
1455
1384
1365
1366
1387
1341
1355
1321
1347
1297
1301
1287
1269
1262
1259
1306
1253
1196
1205
1301
1235
1250
1256
1234
1247
1315
1241
1253
1305
1246
1215
1251
1256
1222
1234
1166
1190
1229
1221
1225
1263
1291
1271
1270
1259
1208
1270
1289
1197
1212
1239
1253
1199
1207
1212
1177
1208
1178
1138
1126
1090
1136
1106
1089
1134
1048
1048
1067
1038
1015
991
970
965
928
913
911
868
938
898
878
843
838
809
840
848
869
925
1114
1578
2172
2728
3230
3330
2757
1973
1376
1030
879
878
805
818
813
810
796
844
840
798
797
827
771
831
797
811
813
797
841
808
791
797
779
800
770
775
837
777
759
777
780
794
770
772
704
711
744
738
728
764
769
758
812
742
759
740
728
763
767
774
777
702
745
760
773
852
908
1001
1069
1073
1107
1102
1021
1023
901
905
863
826
765
707
694
659
586
603
623
576
600
630
569
554
557
577
579
569
583
615
571
570
584
568
614
572
543
596
623
568
541
554
606
568
572
584
643
678
695
655
691
692
651
659
585
571
581
555
522
549
562
525
532
521
506
522
514
533
550
511
460
507
490
488
502
532
483
496
532
507
526
515
514
551
491
492
564
558
511
527
509
508
487
466
475
499
491
511
495
469
480
502
495
470
478
503
511
514
530
491
533
495
501
504
461
498
507
528
533
522
575
527
565
540
533
536
570
495
494
525
538
479
508
504
502
502
526
526
467
495
515
501
492
477
500
505
524
526
515
511
489
520
512
452
453
483
485
501
504
510
532
479
516
531
488
503
537
483
538
490
489
536
531
572
507
497
482
496
492
535
518
499
493
516
519
526
496
533
508
503
509
511
490
498
476
511
507
525
524
499
488
547
572
544
536
510
488
497
529
536
525
489
517
554
518
529
520
512
529
535
499
514
511
521
506
529
505
529
518
517
492
506
530
521
523
543
508
513
504
485
479
520
520
528
501
519
541
548
521
532
526
537
553
515
508
507
528
528
506
554
543
530
545
578
510
544
536
538
522
512
563
548
567
564
537
578
552
515
540
511
518
516
543
520
545
544
531
515
514
499
523
557
601
547
529
560
541
589
606
616
661
633
621
597
537
646
687
782
792
685
594
543
516
475
499
516
540
541
508
517
529
480
497
523
531
541
539
517
543
551
529
540
518
553
497
518
514
528
495
564
516
544
530
529
524
470
508
486
518
545
530
570
557
520
556
536
529
560
529
513
509
549
553
567
558
546
576
561
529
560
535
553
522
531
545
600
599
558
597
596
580
551
547
553
562
588
597
597
647
620
610
609
614
599
585
590
573
566
567
511
524
501
472
469
452
448
456
442
394
413
386
382
366
347
342
330
330
335
281
265
276
288
307
385
448
564
572
481
514
683
1300
2263
3225
3235
2314
1263
626
337
262
244
218
219
224
250
225
212
210
223
209
211
228
225
223
225
239
213
214
218
224
249
231
229
241
226
222
226
231
239
247
226
233
227
228
212
228
238
229
204
227
225
213
243
237
233
240
216
202
219
215
224
233
226
206
226
238
214
216
212
204
246
244
225
242
240
263
235
211
233
252
239
217
230
246
214
207
224
204
202
204
212
209
207
211
210
219
203
232
237
216
189
224
228
212
211
236
250
209
235
237
227
221
218
222
214
233
207
212
218
228
226
221
212
236
222
214
219
233
228
220
203
198
208
234
219
206
229
237
221
224
232
223
194
230
216
173
215
226
193
232
238
232
229
206
239
227
210
211
214
226
225
230
215
208
181
195
219
221
203
178
214
215
216
211
209
205
220
212
209
225
218
189
212
187
228
200
214
205
217
209
225
197
222
226
239
227
222
225
205
217
207
229
221
205
213
205
189
207
229
208
208
207
201
204
196
198
210
209
197
212
198
192
200
214
195
223
207
207
206
233
200
198
208
243
230
217
195
246
240
221
244
197
189
207
200
216
203
194
214
212
210
220
242
196
215
197
212
214
217
211
214
232
221
204
203
216
245
213
228
227
202
209
205
186
174
210
189
180
189
192
177
183
191
196
168
197
197
211
223
244
234
244
286
324
299
304
281
248
216
206
207
173
169
180
196
177
188
165
160
181
166
154
163
170
171
164
168
173
159
171
160
168
185
178
169
172
180
175
170
152
183
169
154
177
177
156
144
157
184
177
177
184
161
165
171
184
169
155
176
168
172
147
159
168
170
177
186
162
141
150
156
153
191
159
153
148
148
157
145
148
163
177
168
149
140
128
109
120
108
105
105
113
107
121
129
134
133
167
216
219
255
290
293
304
320
326
337
311
271
236
197
156
142
113
114
90
89
83
94
87
101
88
83
75
92
94
92
75
86
97
84
83
83
74
83
77
64
95
82
92
84
92
89
74
76
66
67
65
65
77
73
70
73
80
72
63
79
101
95
70
94
68
69
64
73
68
85
68
74
67
67
76
74
77
73
58
76
66
68
81
72
78
67
75
62
76
81
59
66
76
84
85
90
82
76
98
103
91
79
64
63
69
64
70
71
72
74
70
52
70
68
65
75
67
51
56
66
61
71
69
72
84
66
69
73
68
62
95
88
78
78
111
150
151
113
92
103
71
61
46
42
48
46
53
53
50
60
52
51
47
50
39
41
40
31
41
48
47
55
71
119
187
208
204
179
147
87
73
52
33
36
36
46
21
36
21
21
13
6
1
0
1
2
1
0
1


2022
8
8
9
58
5
0
1
O
XPS

1486.7
300.0
1E37
1E37
1E37
1E37
FAT
20.00
5.0
4.500
1E37
2400
1200
1E37
1E37


-1
kinetic energy
eV
948.7
0.100
1
count rate
c/s
pulse counting
0.200
5
70E-9
1E37
1E37
1E37
0
121
879
3767
987
988
974
963
971
963
936
980
982
955
966
958
1010
953
981
955
1022
1010
1042
1050
1029
1002
1067
1085
1067
1109
1080
1177
1270
1290
1347
1399
1501
1615
1636
1682
1888
2029
2081
2217
2384
2498
2615
2741
2883
3100
3285
3295
3442
3615
3681
3767
3763
3693
3720
3600
3513
3364
3219
2970
2818
2698
2510
2245
2008
1869
1658
1620
1474
1454
1304
1263
1200
1161
1137
1111
1090
1051
1002
1051
993
950
1007
946
945
950
987
945
987
974
961
909
907
953
952
899
928
913
935
917
936
965
896
903
908
887
950
903
918
919
938
879
931
935
917
946
918
903
917
905
954


2022
8
8
9
58
5
0
1
C
XPS

1486.7
300.0
1E37
1E37
1E37
1E37
FAT
20.00
5.0
4.500
1E37
2400
1200
1E37
1E37


-1
kinetic energy
eV
1194.7
0.100
1
count rate
c/s
pulse counting
0.200
1
70E-9
1E37
1E37
1E37
0
111
46
856
75
72
57
53
74
66
76
75
74
75
86
80
93
87
102
111
111
99
110
126
134
126
133
127
109
122
118
116
118
129
126
131
133
116
102
106
106
92
103
95
104
108
117
144
152
183
203
239
259
313
323
417
514
527
608
664
749
768
836
856
853
829
802
797
744
651
593
535
481
413
382
319
309
240
206
211
176
175
131
114
98
81
77
75
73
63
62
66
52
46
64
62
50
61
51
58
54
51
65
55
60
52
55
61
58
59
49
49
58
53
53


2022
8
8
9
58
5
0
1
Zn
XPS

1486.7
300.0
1E37
1E37
1E37
1E37
FAT
20.00
5.0
4.500
1E37
2400
1200
1E37
1E37


-1
kinetic energy
eV
433.7
0.100
1
count rate
c/s
pulse counting
0.200
5
70E-9
1E37
1E37
1E37
0
381
1935
4854
2370
2404
2414
2377
2363
2379
2391
2347
2369
2430
2426
2410
2439
2453
2421
2435
2431
2396
2468
2466
2405
2362
2387
2400
2400
2328
2396
2347
2466
2418
2499
2456
2464
2378
2482
2469
2451
2465
2427
2432
2456
2542
2525
2543
2603
2623
2585
2638
2623
2721
2843
2929
2794
2935
2918
3079
3142
3218
3228
3269
3413
3490
3501
3546
3697
3747
3675
3759
3732
3601
3594
3644
3643
3631
3549
3364
3238
3176
3104
3064
2927
2927
2840
2773
2699
2636
2652
2588
2468
2484
2465
2563
2497
2489
2429
2433
2441
2439
2493
2451
2337
2428
2416
2463
2294
2351
2373
2459
2373
2412
2406
2361
2372
2404
2337
2481
2393
2312
2362
2414
2414
2406
2358
2320
2349
2342
2285
2413
2342
2324
2269
2323
2318
2309
2355
2344
2406
2355
2330
2403
2320
2307
2324
2328
2321
2345
2301
2324
2340
2385
2360
2367
2304
2298
2289
2345
2252
2325
2277
2254
2265
2192
2288
2323
2221
2255
2301
2297
2291
2266
2242
2156
2205
2213
2242
2249
2247
2236
2220
2213
2206
2191
2266
2219
2201
2247
2202
2190
2118
2072
2256
2226
2175
2243
2181
2232
2158
2111
2210
2156
2144
2195
2209
2103
2149
2166
2093
2219
2160
2176
2070
2110
2116
2148
2148
2103
2113
2079
2035
2014
2084
2072
2095
2130
2079
2087
2086
2047
2074
2031
2078
1990
2059
2120
2077
2083
2084
2131
2007
1975
2035
2096
2064
2093
2052
1980
2054
2050
2104
2047
2065
2034
2021
2078
2029
2018
2025
2071
2037
2071
2087
2067
2070
2064
2141
2119
2125
2093
2149
2185
2189
2126
2267
2226
2247
2294
2420
2439
2412
2519
2678
2697
2821
2905
2990
3151
3284
3472
3573
3620
3802
3969
4153
4304
4396
4401
4615
4679
4724
4854
4701
4712
4544
4489
4408
4221
3970
3794
3630
3406
3273
3130
2918
2877
2772
2594
2493
2431
2287
2340
2217
2286
2203
2154
2166
2139
2073
2048
2051
2085
2065
2078
2047
2049
2060
2141
2056
2016
2089
2030
2059
2017
1971
1952
2058
2002
2054
1952
1994
2031
2052
2002
2042
2003
1965
2023
1964
2066
1957
2000
2044
2057
1981
1955
2036
2012
2003
2059
1945
1987
1988
2065
1977
1940
1935
1973
1947
1997
2000
1946
1972


2022
8
8
9
58
5
0
1
Cr
XPS

1486.7
300.0
1E37
1E37
1E37
1E37
FAT
20.00
5.0
4.500
1E37
2400
1200
1E37
1E37


-1
kinetic energy
eV
888.7
0.100
1
count rate
c/s
pulse counting
0.200
25
70E-9
1E37
1E37
1E37
0
291
6709
8314
7723
7703
7558
7728
7615
7595
7603
7671
7618
7592
7595
7692
7680
7675
7615
7631
7673
7624
7742
7628
7489
7610
7636
7636
7635
7746
7582
7549
7478
7622
7572
7638
7705
7721
7566
7630
7659
7656
7722
7723
7746
7543
7537
7519
7612
7471
7461
7578
7580
7608
7659
7606
7556
7678
7695
7734
7718
7589
7595
7664
7711
7630
7714
7755
7707
7729
7755
7677
7716
7676
7805
7807
7782
7843
7886
7709
7849
7877
8030
7880
7850
8063
8070
8068
8109
8063
8118
8019
8160
8195
8228
8081
8169
8050
8281
8205
8139
8043
8276
8225
8270
8314
8209
8032
7961
8086
8079
8090
8189
7887
7941
8188
8154
7951
7898
7867
7921
7835
7875
7877
7827
7937
7834
7761
7746
7738
7679
7714
7747
7621
7643
7662
7636
7773
7522
7684
7555
7507
7666
7511
7422
7557
7541
7614
7465
7436
7541
7453
7348
7566
7482
7509
7452
7636
7484
7470
7506
7489
7443
7539
7695
7601
7573
7639
7553
7604
7632
7574
7482
7507
7669
7499
7661
7564
7616
7562
7790
7676
7690
7688
7619
7738
7711
7664
7707
7773
7719
7766
7639
7723
7630
7829
7656
7699
7707
7619
7539
7483
7577
7616
7655
7601
7629
7531
7505
7537
7464
7402
7377
7322
7387
7469
7386
7368
7336
7312
7297
7188
7303
7266
7219
7166
7232
7057
7159
7279
7214
7100
7115
7122
7142
7097
7162
7166
7164
7032
6936
7133
7012
6975
7119
7028
7050
7203
7197
6980
6911
7016
7026
6899
6970
6915
6969
7009
6967
6872
6918
6969
6915
6981
6863
6915
6975
6920
6906
6948
6904
6844
6947
6807
6849
6747
6709
6758
6820
6791
6763
6772
6846
6779
6766
6929
6903
6840
6903
6869
6817
6779
6806
6835
6926


2022
8
8
9
58
5
0
1
Fe
XPS

1486.7
300.0
1E37
1E37
1E37
1E37
FAT
20.00
5.0
4.500
1E37
2400
1200
1E37
1E37


-1
kinetic energy
eV
755.7
0.100
1
count rate
c/s
pulse counting
0.200
10
70E-9
1E37
1E37
1E37
0
281
3406
3683
3518
3540
3579
3542
3561
3572
3611
3557
3527
3483
3594
3672
3576
3568
3569
3576
3552
3518
3510
3524
3663
3497
3511
3563
3521
3527
3581
3556
3447
3623
3610
3563
3556
3561
3479
3494
3534
3558
3612
3522
3554
3619
3501
3574
3566
3543
3629
3557
3489
3570
3601
3660
3616
3509
3483
3516
3611
3558
3583
3423
3532
3553
3608
3605
3590
3579
3683
3528
3594
3610
3569
3538
3503
3535
3530
3511
3588
3557
3504
3536
3639
3625
3530
3478
3563
3597
3619
3567
3565
3629
3626
3539
3554
3580
3498
3622
3635
3530
3545
3563
3599
3526
3589
3541
3561
3526
3597
3549
3596
3510
3655
3633
3666
3612
3591
3614
3592
3463
3601
3649
3514
3544
3600
3597
3668
3569
3654
3599
3511
3587
3461
3614
3599
3614
3615
3488
3561
3638
3577
3516
3580
3554
3553
3493
3504
3583
3620
3613
3559
3581
3513
3480
3545
3580
3435
3619
3527
3518
3441
3481
3614
3596
3515
3569
3522
3659
3621
3596
3467
3544
3530
3523
3533
3545
3508
3565
3564
3569
3582
3551
3523
3545
3540
3531
3580
3525
3582
3609
3628
3491
3607
3613
3537
3564
3482
3641
3510
3612
3634
3456
3563
3571
3484
3606
3514
3485
3645
3530
3470
3518
3624
3541
3568
3612
3610
3645
3465
3498
3584
3464
3594
3593
3547
3523
3558
3420
3531
3541
3546
3564
3626
3592
3406
3497
3523
3587
3534
3433
3552
3553
3476
3642
3549
3582
3585
3599
3493
3601
3545
3488
3447
3547
3528
3548
3536
3555
3616
3550
3607
3518
3525
3505
3534
3496
3523
3561
3531
3536
3586
3527
3578
3555
3582
3613
3566
3493
3555
3551
3536
3516
3494
end of experiment
