VAMAS Surface Chemical Analysis Standard Data Transfer Format 1988 May 4




1
Experiment Type: XPS
NORM
REGULAR
6
0
0
0
0
0
6


2022
8
8
15
56
20
0
0
XPS

1486.7
300.0
1E37
1E37
1E37
1E37
FAT
50.00
5.0
4.500
1E37
2400
1200
1E37
1E37


-1
kinetic energy
eV
100.0
0.5
1
count rate
c/s
pulse counting
0.200
1
70E-9
1E37
1E37
1E37
0
2774
0
6065
4220
4215
4129
4146
4063
3984
4061
4065
4001
4072
4110
4043
4040
4068
3947
4000
4000
4045
4030
4026
4044
3951
3868
3963
3989
3899
3946
3866
3981
3906
3917
3874
3864
3810
3856
3853
3907
3719
3895
3756
3842
3845
3717
3845
3795
3714
3812
3789
3744
3873
3785
3719
3678
3864
3721
3641
3776
3687
3717
3624
3769
3629
3840
3685
3652
3673
3664
3657
3533
3533
3588
3680
3644
3596
3491
3651
3633
3711
3632
3684
3682
3729
3673
3580
3597
3547
3576
3512
3575
3531
3538
3493
3568
3571
3467
3599
3516
3453
3512
3447
3527
3421
3463
3555
3335
3458
3460
3440
3402
3490
3343
3470
3383
3433
3390
3467
3504
3438
3442
3387
3456
3558
3408
3350
3403
3421
3464
3367
3412
3497
3408
3365
3365
3290
3268
3321
3343
3361
3353
3314
3399
3315
3310
3301
3287
3346
3364
3329
3468
3368
3389
3293
3378
3275
3311
3259
3286
3315
3288
3360
3295
3335
3342
3399
3360
3329
3256
3340
3344
3349
3273
3322
3286
3260
3341
3171
3288
3291
3291
3269
3216
3275
3284
3219
3271
3170
3233
3194
3112
3257
3237
3219
3271
3260
3289
3254
3170
3242
3242
3170
3267
3252
3196
3306
3259
3303
3230
3341
3266
3215
3200
3264
3285
3239
3240
3141
3298
3216
3176
3230
3242
3309
3249
3332
3312
3166
3273
3362
3362
3270
3230
3305
3219
3201
3230
3257
3222
3301
3230
3205
3267
3349
3306
3287
3313
3316
3346
3345
3377
3320
3350
3360
3352
3211
3321
3374
3296
3215
3245
3242
3196
3202
3236
3293
3210
3277
3308
3223
3228
3273
3307
3324
3330
3280
3359
3371
3252
3333
3306
3262
3253
3261
3290
3336
3263
3302
3229
3160
3263
3327
3192
3213
3239
3275
3266
3294
3257
3258
3268
3241
3322
3321
3234
3359
3278
3397
3372
3354
3312
3414
3435
3357
3424
3446
3313
3318
3262
3308
3396
3258
3301
3247
3413
3408
3387
3324
3297
3356
3277
3258
3382
3302
3227
3166
3159
3156
3181
3099
3031
3089
3014
3039
3080
2981
2956
2950
2919
2902
2837
2805
2907
2894
2887
2872
2873
2754
2891
2780
2871
2839
2857
2910
2812
2843
2839
2847
2829
2805
2762
2809
2851
2808
2812
2764
2904
2927
2944
2947
2933
2896
2995
3109
3016
2959
3008
2996
2875
2801
2785
2873
2845
2810
2894
2765
2751
2715
2750
2780
2752
2781
2736
2662
2677
2742
2732
2778
2770
2843
2786
2808
2749
2711
2816
2757
2766
2738
2745
2693
2693
2681
2791
2731
2744
2712
2743
2721
2647
2750
2758
2766
2779
2749
2844
2851
2796
2823
2841
2822
2716
2734
2704
2780
2707
2693
2711
2751
2729
2788
2799
2774
2793
2807
2697
2750
2651
2799
2782
2760
2764
2797
2854
2847
2765
2800
2841
2857
2824
2886
2752
2775
2787
2827
2786
2717
2675
2750
2823
2825
2694
2790
2808
2753
2779
2829
2744
2667
2803
2744
2714
2763
2732
2873
2831
2780
2822
2852
2836
2872
2844
2842
2784
2814
2825
2829
2819
2757
2822
2847
2836
2796
2905
2866
2809
2789
2877
2924
2886
2854
2805
2826
2874
2856
2776
2779
2742
2794
2858
2764
2834
2850
2834
2793
2898
2800
2896
2802
2864
2736
2756
2789
2839
2804
2883
2851
2715
2847
2820
2765
2894
2951
2878
2828
2834
2757
2860
2908
2856
2796
2852
2801
2847
2858
2831
2783
2777
2832
2773
2928
2800
2903
2937
2908
2962
2879
2897
2994
2898
2928
2885
2844
2978
2890
2932
2993
2894
2961
2945
2944
2966
2942
2919
2892
3009
3002
2944
2929
2888
2844
2958
2938
2914
2883
2912
2910
2908
2967
2980
2939
2914
2849
2993
2946
2941
2869
2966
3020
2935
2965
2959
2926
2948
2993
3008
2977
2957
2920
2960
2971
2959
3000
3008
2892
2877
2947
3003
2976
2920
2988
3080
3075
3097
3028
2936
2904
2999
2998
2967
3033
2954
2957
2981
3067
2932
2917
2998
2931
3024
2990
2967
2911
2886
2871
2874
2854
2805
2813
2851
2801
2732
2785
2726
2689
2805
2846
2748
2809
2788
2941
3075
3197
3609
4272
4677
4767
4345
3749
3332
2993
2894
2903
2884
2834
2738
2800
2776
2744
2735
2716
2712
2716
2654
2643
2545
2604
2573
2547
2500
2443
2493
2469
2445
2419
2369
2312
2304
2295
2364
2314
2210
2245
2235
2202
2336
2448
2743
3297
4086
5336
6065
5866
5042
3984
3053
2615
2413
2345
2271
2240
2239
2215
2251
2215
2203
2144
2210
2209
2146
2132
2152
2241
2162
2148
2196
2248
2259
2158
2201
2216
2133
2139
2133
2193
2097
2160
2254
2225
2211
2180
2116
2182
2255
2288
2220
2264
2216
2217
2276
2144
2158
2178
2181
2135
2165
2104
2146
2124
2182
2151
2113
2099
2161
2093
2085
2060
2075
1986
2173
2077
2010
2072
2066
2093
2067
2140
2058
2185
2134
2088
2174
2167
2203
2252
2176
2352
2272
2216
2282
2217
2210
2277
2217
2175
2216
2173
2189
2138
2159
2125
2084
2064
2030
2030
2009
2056
1976
2003
1941
1888
1891
1819
1908
1890
1909
1860
1798
1855
1860
1870
1905
1816
1831
1841
1836
1865
1793
1820
1774
1772
1810
1829
1771
1757
1757
1824
1858
1792
1826
1823
1827
1788
1840
1850
1826
1811
1839
1821
1733
1765
1768
1796
1814
1796
1778
1833
1873
1823
1833
1864
1864
1803
1810
1804
1795
1869
1851
1789
1813
1784
1806
1771
1903
1849
1825
1795
1790
1854
1825
1796
1853
1890
1835
1822
1835
1889
1788
1803
1898
1850
1876
1787
1823
1875
1876
1816
1790
1838
1809
1736
1788
1815
1780
1738
1772
1839
1812
1795
1823
1791
1727
1824
1800
1809
1748
1798
1756
1796
1775
1798
1814
1861
1834
1812
1793
1815
1836
1839
1830
1780
1793
1754
1835
1819
1889
1812
1838
1911
1886
1838
1805
1834
1761
1803
1887
1854
1885
1885
1804
1773
1894
1884
1804
1805
1786
1807
1845
1868
1781
1801
1838
1814
1804
1837
1817
1779
1799
1835
1761
1761
1835
1833
1847
1830
1862
1836
1802
1839
1783
1830
1839
1884
1826
1748
1792
1861
1866
1883
1873
1833
1823
1845
1837
1820
1880
1855
1846
1844
1863
1823
1857
1863
1792
1848
1828
1876
1882
1804
1889
1825
1740
1822
1861
1865
1871
1886
1812
1777
1813
1897
1786
1770
1762
1843
1839
1785
1882
1876
1844
1832
1910
1780
1814
1951
1841
1823
1848
1930
1831
1806
1820
1873
1836
1800
1842
1834
1848
1846
1846
1771
1917
1862
1830
1890
1856
1900
1905
1831
1871
1813
1789
1893
1884
1897
1822
1900
1845
1887
1848
1766
1832
1807
1817
1868
1877
1856
1896
1885
1877
1883
1807
1900
1900
1957
1921
1872
1835
1931
1877
1912
1870
2007
1915
1928
1889
1926
1847
1927
1949
1864
1856
1893
1905
1875
1837
1915
1856
1885
1929
1881
1879
1916
1865
1869
1930
1904
1965
1808
1907
1896
1942
1959
1872
1875
1882
1870
1815
1924
1977
1913
1899
1884
1896
1895
1867
1913
1901
1901
1853
1891
1982
1863
1855
1853
1927
1928
1888
1880
1840
1898
1887
1870
1904
1944
1946
1937
1916
1885
1879
1937
1889
1974
1906
1943
1905
1933
1920
1876
1916
1901
1882
1881
1889
1803
1882
1857
1893
1894
1904
1922
1883
1887
1865
1883
1874
1893
1891
1874
1869
1854
1870
1836
1969
1868
1856
1837
1891
1922
1862
1894
1912
1816
1833
1829
1903
1917
1863
1857
1862
1954
1933
1902
1883
1953
1958
1942
1957
1850
1925
1952
2002
2014
1937
1913
1836
1875
1910
1865
1841
1835
1946
1986
1949
1963
1952
1930
1933
1992
1884
1879
1840
1924
1985
1943
1973
1902
1840
1930
1944
1897
1857
1945
1912
1915
1898
1875
1924
1880
1893
1865
1835
1902
1893
1934
1926
1866
1878
1892
1946
1882
1910
1898
1936
1938
1905
1951
1956
1964
1903
1938
1996
1922
1953
1972
1980
1919
1939
1911
1922
1885
1921
1932
1907
1917
1947
1954
1995
1969
1897
1996
1927
1971
1930
1956
1938
1971
1986
1918
1927
1975
1962
1915
1909
1951
1899
1912
1878
1931
1897
1902
1916
1907
1951
1933
2003
1965
1900
1852
1972
1952
2005
1892
1971
1904
1951
1930
1986
1917
1920
1990
1905
1902
1889
1983
1901
1939
1909
1881
1926
1937
1936
1900
1857
1872
1959
1915
1962
1914
1910
1972
1919
1927
1887
1845
1967
1895
1941
1896
1984
1968
1978
1958
1996
1880
1885
1893
1958
1957
1998
1919
1866
1933
1934
1943
1886
1927
1902
1939
1898
1900
1850
1893
1924
1903
1924
1826
1827
1907
1929
1898
1841
1894
1876
1885
1883
1888
1848
1810
1903
1993
1966
1942
1958
1952
1995
1945
1912
1933
1879
1887
1874
1831
1954
1891
1874
1885
1865
1950
1915
1864
1904
1912
1908
1841
1837
1842
1899
1868
1764
1754
1744
1832
1754
1743
1764
1801
1704
1790
1749
1803
1787
1741
1756
1808
1792
1799
1768
1834
1789
1785
1767
1769
1765
1696
1739
1800
1726
1696
1723
1734
1773
1776
1696
1701
1676
1707
1784
1798
1773
1820
1788
1701
1787
1741
1740
1744
1686
1738
1712
1745
1679
1677
1686
1696
1717
1692
1682
1649
1646
1635
1587
1625
1654
1710
1676
1712
1655
1725
1717
1672
1677
1700
1680
1708
1700
1680
1802
1701
1630
1732
1742
1780
1700
1706
1774
1701
1770
1676
1699
1705
1667
1708
1682
1712
1746
1704
1644
1720
1727
1689
1699
1710
1738
1673
1719
1694
1661
1635
1715
1679
1725
1696
1628
1685
1643
1711
1621
1650
1669
1643
1661
1725
1727
1717
1784
1816
1792
1783
1850
1823
1761
1738
1752
1725
1697
1667
1726
1647
1618
1620
1668
1685
1668
1652
1650
1735
1741
1704
1675
1604
1599
1579
1563
1633
1523
1497
1579
1554
1477
1473
1457
1430
1444
1439
1427
1442
1379
1454
1447
1463
1459
1461
1516
1517
1591
1524
1528
1436
1418
1474
1422
1468
1475
1467
1506
1451
1469
1449
1499
1536
1555
1582
1524
1509
1505
1454
1436
1403
1443
1354
1370
1398
1392
1374
1362
1356
1301
1355
1311
1260
1291
1264
1201
1270
1217
1154
1190
1165
1160
1216
1088
1108
1112
1025
1021
1030
999
950
992
1003
1004
1050
1123
1280
1648
2246
2853
3286
3281
2926
2586
2167
1757
1338
1128
1106
986
1009
1004
984
946
965
976
1019
940
980
986
978
1001
948
983
944
920
936
941
983
944
966
950
997
926
938
952
903
915
931
947
943
915
885
885
945
942
884
887
923
906
850
911
892
874
846
858
854
870
946
965
986
1111
1272
1387
1466
1544
1539
1414
1324
1252
1222
1131
1082
995
914
799
699
694
721
674
620
669
647
617
629
666
610
619
623
607
618
658
664
648
600
610
604
629
609
622
633
642
576
597
596
612
675
668
736
772
806
868
912
855
744
681
697
645
611
589
579
520
522
496
509
512
507
481
480
481
469
489
439
459
490
515
492
497
500
527
492
463
479
476
485
497
500
499
505
496
452
472
464
504
505
484
472
474
472
495
453
470
465
464
479
450
456
443
414
461
469
487
460
422
450
464
466
480
481
469
456
467
527
484
493
491
503
504
534
503
460
483
488
477
465
465
534
460
490
461
466
484
496
455
487
452
436
491
475
496
509
453
427
506
463
435
441
447
473
471
443
481
473
487
479
477
440
475
493
482
465
472
468
440
436
450
455
464
490
476
500
506
504
487
513
491
470
468
487
467
462
457
493
480
483
505
502
470
473
481
525
490
475
508
518
500
528
490
481
518
497
514
494
487
495
500
494
493
491
516
488
506
471
507
462
479
506
477
431
463
489
467
505
481
522
505
480
480
465
493
461
484
482
500
514
509
501
496
499
460
514
511
486
505
505
481
485
516
513
492
504
515
514
493
507
502
513
501
519
502
485
493
480
510
526
498
522
535
511
501
501
518
578
530
503
513
527
527
503
490
498
545
484
465
529
513
523
521
562
568
560
582
596
582
567
574
598
610
670
636
691
642
575
527
484
499
502
503
512
510
494
486
539
514
513
463
503
520
515
515
530
499
516
539
499
514
525
540
535
525
544
523
530
527
518
556
526
547
553
529
528
570
519
498
514
521
518
488
523
546
538
539
501
522
521
533
560
524
554
527
529
522
501
516
541
529
521
529
554
555
574
579
566
549
538
568
591
582
577
584
590
561
623
563
543
560
575
551
550
510
515
539
508
483
441
431
440
452
426
423
393
377
368
354
347
351
316
312
279
296
309
314
358
410
401
413
443
429
505
620
850
1239
1719
1968
1968
1730
1436
1341
1122
810
470
305
233
264
233
245
255
238
217
224
236
226
220
216
249
234
238
218
221
258
237
246
247
227
231
248
251
237
234
238
248
223
212
226
220
229
234
243
235
246
246
235
242
243
238
257
233
251
247
223
234
218
220
226
246
225
217
217
216
257
242
225
252
223
226
237
229
249
244
226
225
236
246
238
241
221
227
213
223
238
237
231
264
251
222
233
252
244
240
234
220
214
236
250
265
259
264
259
235
261
252
250
235
225
230
255
251
237
256
214
230
259
240
236
257
245
258
228
261
258
208
247
234
256
254
240
213
216
225
261
259
230
247
263
257
250
245
245
238
228
256
252
249
232
242
232
255
257
242
250
239
247
243
245
224
221
255
251
223
250
216
244
260
267
248
238
258
236
258
241
228
241
276
244
248
238
233
251
238
230
236
244
216
231
212
248
252
251
265
237
248
247
258
269
254
243
263
235
233
237
238
234
224
239
262
269
247
258
235
248
239
234
257
256
257
256
253
234
226
271
245
256
278
266
273
262
247
276
288
275
292
264
292
261
260
286
260
262
271
250
229
250
247
238
252
262
239
246
247
244
254
237
240
250
272
256
251
255
276
264
249
259
279
219
229
236
241
252
222
214
224
233
224
212
223
242
258
255
274
292
342
420
420
436
416
393
336
311
257
266
243
244
221
211
220
232
217
229
231
194
211
223
226
217
209
201
186
210
227
214
200
201
205
209
200
222
206
243
197
229
222
204
197
195
206
227
216
226
239
223
225
218
230
227
231
227
219
239
256
221
211
229
221
223
217
225
217
238
207
215
185
186
197
208
183
187
197
186
216
170
174
182
185
196
169
170
158
160
144
141
137
163
161
165
200
226
297
337
385
392
434
462
492
551
529
522
461
404
333
287
243
213
165
151
138
127
110
105
109
97
97
102
101
94
87
93
78
80
88
86
104
110
93
97
85
81
78
77
87
83
76
97
87
80
82
79
84
84
88
95
101
93
97
83
95
76
82
98
86
89
77
89
85
82
84
89
71
73
83
73
101
90
75
79
78
86
86
90
75
99
81
98
86
108
83
83
92
76
67
82
92
93
73
94
106
99
93
92
83
89
89
99
83
68
73
83
83
88
76
75
80
85
92
82
80
81
76
85
82
93
100
92
82
85
102
96
78
105
110
126
128
148
150
134
122
122
106
82
73
68
78
52
53
47
53
49
41
42
34
28
26
34
36
47
38
47
66
121
190
253
313
303
235
209
149
98
100
91
84
64
60
55
50
41
26
28
19
16
6
5
7
4
2
0
0
0
0
0
0


2022
8
8
15
56
20
0
1
O
XPS

1486.7
300.0
1E37
1E37
1E37
1E37
FAT
20.00
5.0
4.500
1E37
2400
1200
1E37
1E37


-1
kinetic energy
eV
948.7
0.100
1
count rate
c/s
pulse counting
0.200
5
70E-9
1E37
1E37
1E37
0
121
1015
4106
1092
1076
1080
1114
1080
1108
1074
1107
1108
1248
1150
1165
1235
1256
1255
1325
1358
1420
1452
1587
1648
1722
1871
1961
2084
2268
2481
2632
2835
2965
3135
3332
3400
3631
3668
3860
3942
4000
4072
4106
4035
4026
3932
4013
3862
3697
3573
3412
3384
3248
3068
2915
2870
2708
2728
2593
2521
2400
2309
2202
2177
2100
2010
1848
1732
1624
1551
1508
1391
1330
1287
1311
1258
1202
1172
1137
1086
1145
1122
1145
1164
1075
1066
1060
1114
1065
1037
1096
1108
1064
1056
1090
1096
1055
1079
1040
1015
1050
1069
1101
1044
1078
1058
1043
1110
1084
1041
1064
1041
1089
1078
1050
1087
1075
1062
1090
1027
1069
1063
1111
1094


2022
8
8
15
56
20
0
1
C
XPS

1486.7
300.0
1E37
1E37
1E37
1E37
FAT
20.00
5.0
4.500
1E37
2400
1200
1E37
1E37


-1
kinetic energy
eV
1194.7
0.100
1
count rate
c/s
pulse counting
0.200
4
70E-9
1E37
1E37
1E37
0
111
204
1810
411
410
432
385
355
412
411
379
378
396
373
385
369
390
397
406
396
431
430
429
489
527
571
571
615
691
751
842
866
945
1053
1150
1197
1321
1446
1488
1546
1630
1633
1784
1803
1745
1798
1810
1744
1701
1780
1711
1635
1562
1520
1494
1463
1342
1337
1290
1223
1220
1191
1165
1197
1156
1094
1078
1050
1007
1006
950
900
880
821
706
627
610
536
478
443
390
370
328
303
310
288
260
252
245
247
251
236
235
238
237
204
247
219
222
230
235
214
223
211
238
234
219
233
247
240
225
240
239
217


2022
8
8
15
56
20
0
1
Zn
XPS

1486.7
300.0
1E37
1E37
1E37
1E37
FAT
20.00
5.0
4.500
1E37
2400
1200
1E37
1E37


-1
kinetic energy
eV
433.7
0.100
1
count rate
c/s
pulse counting
0.200
5
70E-9
1E37
1E37
1E37
0
381
2306
7235
3158
3085
3122
3208
3128
2982
3057
3208
3144
3105
3164
3211
3077
3099
3108
3251
3091
3028
3150
3159
3149
3065
3097
3106
3211
2990
3042
3156
3135
3140
3079
3190
3130
3171
3119
3165
3145
3172
3215
3231
3185
3234
3295
3259
3339
3282
3347
3425
3473
3515
3445
3505
3741
3741
3858
3907
4137
4298
4337
4528
4585
4714
4895
5025
5164
5299
5506
5469
5432
5649
5597
5553
5466
5443
5297
5265
5088
4919
4849
4818
4698
4486
4393
4379
4110
3960
3814
3762
3808
3652
3617
3525
3490
3487
3368
3385
3287
3322
3290
3234
3295
3291
3230
3207
3226
3247
3239
3256
3234
3183
3199
3186
3139
3176
3202
3183
3124
3199
3143
3121
3152
3184
3109
3077
3137
3096
3100
3037
3048
3009
3105
3057
3049
3062
3029
3075
3049
3046
2951
3045
3110
3024
3023
3047
3075
2988
3083
2987
3083
2954
2990
2955
2967
3006
2993
2975
3046
2861
2917
2969
2894
2966
3066
2897
2910
2899
2851
2809
2892
2802
2849
2948
2857
2836
2794
2800
2751
2853
2841
2822
2858
2871
2802
2844
2788
2865
2783
2849
2782
2844
2740
2826
2819
2813
2809
2724
2708
2753
2789
2828
2748
2714
2758
2741
2757
2708
2698
2716
2661
2737
2682
2585
2700
2607
2561
2638
2638
2682
2690
2628
2561
2612
2564
2610
2541
2631
2579
2570
2497
2549
2547
2534
2533
2530
2502
2466
2426
2543
2482
2521
2582
2433
2511
2399
2483
2414
2441
2450
2395
2481
2539
2477
2409
2443
2419
2472
2458
2464
2458
2502
2506
2460
2521
2514
2535
2574
2535
2523
2555
2581
2541
2597
2708
2667
2670
2820
2860
2913
2950
3122
3178
3397
3490
3575
3979
4201
4461
4707
4930
5322
5734
5910
6232
6557
6629
6717
6964
7122
7120
7235
7180
7134
6891
6885
6698
6436
6133
5899
5734
5466
5187
4911
4664
4246
4169
3892
3704
3573
3396
3221
3135
2947
2937
2791
2789
2771
2704
2661
2613
2556
2554
2482
2537
2472
2533
2453
2500
2518
2457
2477
2561
2455
2416
2503
2513
2394
2519
2456
2439
2416
2415
2480
2393
2392
2446
2415
2482
2445
2359
2428
2403
2433
2371
2455
2410
2306
2330
2437
2400
2404
2460
2409
2503
2432
2461
2418
2306
2357
2394
2363
2313


2022
8
8
15
56
20
0
1
Cr
XPS

1486.7
300.0
1E37
1E37
1E37
1E37
FAT
20.00
5.0
4.500
1E37
2400
1200
1E37
1E37


-1
kinetic energy
eV
888.7
0.100
1
count rate
c/s
pulse counting
0.200
25
70E-9
1E37
1E37
1E37
0
291
7943
10472
9405
9436
9299
9296
9240
9368
9283
9306
9219
9219
9185
9384
9431
9290
9092
9299
9316
9252
9252
9347
9337
9185
9187
9260
9147
9267
9320
9478
9321
9261
9270
9120
9302
9278
9296
9192
9230
9421
9329
9111
9237
9193
9363
9327
9304
9223
9499
9427
9437
9497
9359
9708
9586
9416
9449
9521
9547
9548
9639
9457
9584
9696
9727
9897
9753
9755
9942
9877
9889
9940
10090
10036
9941
10100
10181
10288
10377
10310
10472
10313
10189
10388
10369
10392
10342
10409
10260
10291
10312
10352
10433
10175
10235
10227
10240
10223
10196
10180
10127
10129
10111
10035
9956
9791
9866
9983
9900
9861
9955
9769
9746
9657
9624
9655
9528
9650
9450
9251
9536
9411
9275
9245
9255
9228
9388
9132
9276
9110
9331
9342
9199
9229
9219
9233
9120
9118
9074
9059
9141
9016
9167
9132
9187
9215
9144
9243
9188
9182
9276
9330
9273
9241
9243
9312
9361
9177
9193
9330
9320
9543
9542
9514
9309
9401
9564
9524
9631
9640
9551
9727
9587
9558
9705
9701
9663
9751
9678
9501
9642
9678
9547
9532
9565
9463
9352
9570
9573
9398
9450
9435
9401
9415
9226
9295
9315
9304
9150
9141
9167
9155
9121
9039
9179
8824
9131
8894
9024
8968
8853
8815
8803
8571
8872
8852
8808
8514
8793
8767
8580
8650
8637
8682
8403
8513
8661
8626
8449
8440
8527
8505
8360
8391
8406
8527
8312
8213
8345
8395
8364
8366
8354
8316
8328
8255
8313
8199
8214
8258
8050
8175
8172
8194
8021
8007
8176
8100
8169
8142
8108
8166
8111
8295
8125
8190
7975
8165
8108
8053
8098
8159
8179
8090
8093
8007
8138
8133
8058
8237
8138
8081
8255
7943
8194
8218
8212
8288
8206
8199
8280
8136
8170


2022
8
8
15
56
20
0
1
Fe
XPS

1486.7
300.0
1E37
1E37
1E37
1E37
FAT
20.00
5.0
4.500
1E37
2400
1200
1E37
1E37


-1
kinetic energy
eV
755.7
0.100
1
count rate
c/s
pulse counting
0.200
5
70E-9
1E37
1E37
1E37
0
281
1599
1798
1649
1655
1693
1667
1716
1716
1736
1737
1674
1720
1692
1662
1703
1630
1650
1694
1677
1663
1619
1630
1631
1680
1666
1733
1655
1671
1669
1681
1689
1673
1669
1723
1679
1678
1638
1668
1723
1759
1665
1675
1717
1665
1632
1618
1690
1672
1772
1708
1703
1624
1685
1626
1636
1696
1652
1666
1640
1708
1677
1704
1703
1635
1697
1632
1682
1699
1721
1717
1705
1685
1755
1697
1654
1692
1665
1636
1692
1688
1658
1706
1698
1686
1640
1708
1655
1640
1697
1673
1706
1719
1698
1726
1751
1716
1662
1694
1641
1661
1716
1624
1713
1682
1741
1668
1652
1678
1662
1701
1630
1717
1669
1681
1654
1684
1710
1687
1655
1632
1797
1706
1679
1705
1652
1664
1681
1690
1757
1700
1763
1645
1668
1701
1756
1740
1707
1705
1694
1656
1717
1696
1750
1794
1694
1601
1661
1611
1716
1658
1721
1733
1741
1640
1674
1733
1713
1689
1737
1732
1707
1730
1707
1744
1687
1637
1666
1669
1685
1666
1663
1651
1669
1650
1720
1744
1707
1726
1690
1661
1719
1657
1693
1651
1624
1713
1664
1693
1712
1677
1650
1682
1723
1724
1751
1636
1679
1752
1737
1700
1681
1661
1658
1690
1666
1717
1798
1759
1780
1725
1670
1700
1678
1732
1714
1648
1678
1725
1741
1656
1637
1612
1652
1645
1681
1649
1644
1677
1709
1709
1699
1671
1661
1733
1679
1697
1673
1692
1724
1756
1696
1733
1712
1741
1656
1699
1777
1733
1707
1692
1640
1599
1654
1710
1732
1720
1712
1651
1734
1718
1707
1653
1667
1685
1670
1649
1662
1663
1661
1680
1696
1699
1718
1734
1670
1646
1697
1725
1750
1684
1658
1703
1678
end of experiment
