5.00435563	573
5.021066899	595
5.037778168	580
5.054489437	587
5.071200706	581
5.087911975	601
5.104623244	537
5.121334513	585
5.138045782	593
5.154757051	558
5.17146832	601
5.188179589	542
5.204890858	564
5.221602127	557
5.238313396	572
5.255024665	525
5.271735934	568
5.288447203	546
5.305158472	542
5.321869741	548
5.33858101	551
5.355292279	543
5.372003548	524
5.388714816	595
5.405426085	536
5.422137354	590
5.438848623	577
5.455559892	571
5.472271161	535
5.48898243	527
5.505693699	497
5.522404968	531
5.539116237	537
5.555827506	516
5.572538775	569
5.589250044	526
5.605961313	494
5.622672582	524
5.639383851	528
5.65609512	523
5.672806389	528
5.689517658	503
5.706228927	497
5.722940196	509
5.739651465	530
5.756362734	539
5.773074003	493
5.789785272	516
5.806496541	495
5.82320781	547
5.839919079	492
5.856630348	476
5.873341617	524
5.890052886	493
5.906764155	451
5.923475424	470
5.940186693	497
5.956897962	463
5.973609231	489
5.9903205	480
6.007031769	515
6.023743038	444
6.040454307	490
6.057165576	474
6.073876845	434
6.090588114	475
6.107299383	478
6.124010652	471
6.14072192	445
6.157433189	469
6.174144458	517
6.190855727	452
6.207566996	458
6.224278265	461
6.240989534	467
6.257700803	467
6.274412072	452
6.291123341	508
6.30783461	457
6.324545879	502
6.341257148	456
6.357968417	494
6.374679686	458
6.391390955	471
6.408102224	472
6.424813493	489
6.441524762	454
6.458236031	457
6.4749473	460
6.491658569	495
6.508369838	417
6.525081107	428
6.541792376	447
6.558503645	413
6.575214914	474
6.591926183	458
6.608637452	430
6.625348721	459
6.64205999	433
6.658771259	442
6.675482528	406
6.692193797	421
6.708905066	462
6.725616335	417
6.742327604	433
6.759038873	425
6.775750142	455
6.792461411	441
6.80917268	437
6.825883949	458
6.842595218	465
6.859306487	463
6.876017756	416
6.892729024	434
6.909440293	443
6.926151562	443
6.942862831	407
6.9595741	443
6.976285369	422
6.992996638	452
7.009707907	440
7.026419176	428
7.043130445	432
7.059841714	427
7.076552983	388
7.093264252	413
7.109975521	460
7.12668679	412
7.143398059	426
7.160109328	441
7.176820597	448
7.193531866	429
7.210243135	422
7.226954404	394
7.243665673	426
7.260376942	419
7.277088211	451
7.29379948	358
7.310510749	405
7.327222018	395
7.343933287	411
7.360644556	428
7.377355825	444
7.394067094	449
7.410778363	412
7.427489632	407
7.444200901	424
7.46091217	396
7.477623439	389
7.494334708	406
7.511045977	433
7.527757246	431
7.544468515	406
7.561179784	436
7.577891053	432
7.594602322	413
7.611313591	390
7.62802486	395
7.644736128	404
7.661447397	409
7.678158666	399
7.694869935	385
7.711581204	396
7.728292473	353
7.745003742	366
7.761715011	387
7.77842628	341
7.795137549	381
7.811848818	388
7.828560087	351
7.845271356	389
7.861982625	417
7.878693894	422
7.895405163	391
7.912116432	391
7.928827701	370
7.94553897	420
7.962250239	369
7.978961508	368
7.995672777	424
8.012384046	354
8.029095315	386
8.045806584	364
8.062517853	395
8.079229122	385
8.095940391	359
8.11265166	394
8.129362929	391
8.146074198	365
8.162785467	404
8.179496736	349
8.196208005	394
8.212919274	389
8.229630543	376
8.246341812	345
8.263053081	384
8.27976435	394
8.296475619	385
8.313186888	341
8.329898157	387
8.346609426	381
8.363320695	362
8.380031964	351
8.396743233	374
8.413454501	368
8.43016577	381
8.446877039	361
8.463588308	387
8.480299577	402
8.497010846	340
8.513722115	370
8.530433384	381
8.547144653	364
8.563855922	356
8.580567191	364
8.59727846	384
8.613989729	351
8.630700998	384
8.647412267	376
8.664123536	383
8.680834805	321
8.697546074	350
8.714257343	368
8.730968612	365
8.747679881	352
8.76439115	367
8.781102419	359
8.797813688	359
8.814524957	350
8.831236226	372
8.847947495	334
8.864658764	365
8.881370033	355
8.898081302	367
8.914792571	301
8.93150384	365
8.948215109	323
8.964926378	367
8.981637647	354
8.998348916	343
9.015060185	342
9.031771454	327
9.048482723	330
9.065193992	342
9.081905261	335
9.09861653	364
9.115327799	330
9.132039068	375
9.148750337	341
9.165461605	337
9.182172874	344
9.198884143	339
9.215595412	336
9.232306681	331
9.24901795	316
9.265729219	322
9.282440488	313
9.299151757	289
9.315863026	328
9.332574295	306
9.349285564	304
9.365996833	297
9.382708102	291
9.399419371	274
9.41613064	273
9.432841909	329
9.449553178	319
9.466264447	297
9.482975716	313
9.499686985	338
9.516398254	337
9.533109523	297
9.549820792	314
9.566532061	315
9.58324333	324
9.599954599	304
9.616665868	348
9.633377137	313
9.650088406	330
9.666799675	342
9.683510944	274
9.700222213	322
9.716933482	336
9.733644751	277
9.75035602	316
9.767067289	321
9.783778558	333
9.800489827	304
9.817201096	333
9.833912365	300
9.850623634	339
9.867334903	304
9.884046172	293
9.900757441	281
9.917468709	306
9.934179978	299
9.950891247	325
9.967602516	300
9.984313785	315
10.00102505	288
10.01773632	288
10.03444759	305
10.05115886	299
10.06787013	319
10.0845814	290
10.10129267	283
10.11800394	264
10.13471521	304
10.15142648	307
10.16813774	331
10.18484901	326
10.20156028	293
10.21827155	269
10.23498282	321
10.25169409	285
10.26840536	312
10.28511663	298
10.3018279	293
10.31853917	243
10.33525043	270
10.3519617	297
10.36867297	326
10.38538424	276
10.40209551	291
10.41880678	296
10.43551805	280
10.45222932	273
10.46894059	316
10.48565186	277
10.50236312	283
10.51907439	271
10.53578566	289
10.55249693	293
10.5692082	286
10.58591947	307
10.60263074	276
10.61934201	246
10.63605328	274
10.65276455	284
10.66947581	284
10.68618708	281
10.70289835	295
10.71960962	283
10.73632089	283
10.75303216	270
10.76974343	277
10.7864547	261
10.80316597	256
10.81987723	266
10.8365885	285
10.85329977	267
10.87001104	237
10.88672231	292
10.90343358	265
10.92014485	271
10.93685612	271
10.95356739	282
10.97027866	298
10.98698992	297
11.00370119	268
11.02041246	253
11.03712373	268
11.053835	301
11.07054627	269
11.08725754	295
11.10396881	304
11.12068008	265
11.13739135	271
11.15410261	273
11.17081388	270
11.18752515	277
11.20423642	265
11.22094769	255
11.23765896	276
11.25437023	293
11.2710815	289
11.28779277	238
11.30450404	260
11.3212153	260
11.33792657	266
11.35463784	264
11.37134911	258
11.38806038	232
11.40477165	283
11.42148292	295
11.43819419	261
11.45490546	249
11.47161672	262
11.48832799	271
11.50503926	291
11.52175053	241
11.5384618	240
11.55517307	251
11.57188434	265
11.58859561	265
11.60530688	259
11.62201815	243
11.63872941	276
11.65544068	267
11.67215195	276
11.68886322	275
11.70557449	267
11.72228576	255
11.73899703	277
11.7557083	270
11.77241957	261
11.78913084	264
11.8058421	290
11.82255337	261
11.83926464	264
11.85597591	252
11.87268718	273
11.88939845	277
11.90610972	289
11.92282099	270
11.93953226	230
11.95624353	251
11.97295479	304
11.98966606	264
12.00637733	290
12.0230886	250
12.03979987	251
12.05651114	296
12.07322241	261
12.08993368	276
12.10664495	258
12.12335622	266
12.14006748	295
12.15677875	298
12.17349002	236
12.19020129	274
12.20691256	262
12.22362383	259
12.2403351	251
12.25704637	273
12.27375764	277
12.2904689	261
12.30718017	262
12.32389144	234
12.34060271	268
12.35731398	263
12.37402525	290
12.39073652	259
12.40744779	258
12.42415906	283
12.44087033	292
12.45758159	295
12.47429286	274
12.49100413	286
12.5077154	277
12.52442667	239
12.54113794	307
12.55784921	313
12.57456048	270
12.59127175	277
12.60798302	267
12.62469428	283
12.64140555	292
12.65811682	261
12.67482809	291
12.69153936	293
12.70825063	241
12.7249619	280
12.74167317	300
12.75838444	289
12.77509571	312
12.79180697	279
12.80851824	269
12.82522951	301
12.84194078	319
12.85865205	285
12.87536332	303
12.89207459	307
12.90878586	322
12.92549713	290
12.94220839	294
12.95891966	301
12.97563093	314
12.9923422	285
13.00905347	281
13.02576474	286
13.04247601	284
13.05918728	314
13.07589855	301
13.09260982	283
13.10932108	299
13.12603235	298
13.14274362	298
13.15945489	321
13.17616616	310
13.19287743	310
13.2095887	283
13.22629997	283
13.24301124	320
13.25972251	323
13.27643377	271
13.29314504	285
13.30985631	325
13.32656758	297
13.34327885	304
13.35999012	319
13.37670139	282
13.39341266	300
13.41012393	325
13.4268352	296
13.44354646	295
13.46025773	288
13.476969	299
13.49368027	282
13.51039154	282
13.52710281	304
13.54381408	273
13.56052535	266
13.57723662	294
13.59394789	258
13.61065915	268
13.62737042	290
13.64408169	263
13.66079296	282
13.67750423	296
13.6942155	278
13.71092677	254
13.72763804	289
13.74434931	254
13.76106057	303
13.77777184	299
13.79448311	281
13.81119438	281
13.82790565	262
13.84461692	262
13.86132819	286
13.87803946	274
13.89475073	294
13.911462	262
13.92817326	274
13.94488453	238
13.9615958	271
13.97830707	290
13.99501834	249
14.01172961	276
14.02844088	305
14.04515215	284
14.06186342	261
14.07857469	285
14.09528595	249
14.11199722	254
14.12870849	259
14.14541976	255
14.16213103	247
14.1788423	261
14.19555357	276
14.21226484	247
14.22897611	235
14.24568738	273
14.26239864	270
14.27910991	244
14.29582118	231
14.31253245	247
14.32924372	273
14.34595499	268
14.36266626	246
14.37937753	228
14.3960888	265
14.41280007	279
14.42951133	234
14.4462226	240
14.46293387	244
14.47964514	268
14.49635641	255
14.51306768	256
14.52977895	256
14.54649022	251
14.56320149	258
14.57991275	249
14.59662402	269
14.61333529	218
14.63004656	261
14.64675783	240
14.6634691	244
14.68018037	258
14.69689164	232
14.71360291	258
14.73031418	270
14.74702544	260
14.76373671	259
14.78044798	221
14.79715925	247
14.81387052	225
14.83058179	222
14.84729306	258
14.86400433	231
14.8807156	252
14.89742687	200
14.91413813	241
14.9308494	262
14.94756067	233
14.96427194	270
14.98098321	247
14.99769448	250
15.01440575	240
15.03111702	255
15.04782829	252
15.06453956	250
15.08125082	245
15.09796209	225
15.11467336	224
15.13138463	234
15.1480959	256
15.16480717	231
15.18151844	234
15.19822971	231
15.21494098	233
15.23165224	214
15.24836351	236
15.26507478	263
15.28178605	238
15.29849732	263
15.31520859	228
15.33191986	238
15.34863113	233
15.3653424	241
15.38205367	232
15.39876493	246
15.4154762	240
15.43218747	239
15.44889874	237
15.46561001	240
15.48232128	238
15.49903255	235
15.51574382	195
15.53245509	244
15.54916636	243
15.56587762	228
15.58258889	245
15.59930016	249
15.61601143	225
15.6327227	244
15.64943397	235
15.66614524	288
15.68285651	232
15.69956778	206
15.71627905	227
15.73299031	249
15.74970158	262
15.76641285	246
15.78312412	223
15.79983539	271
15.81654666	235
15.83325793	233
15.8499692	254
15.86668047	230
15.88339174	231
15.900103	246
15.91681427	235
15.93352554	244
15.95023681	227
15.96694808	236
15.98365935	219
16.00037062	227
16.01708189	229
16.03379316	227
16.05050442	258
16.06721569	224
16.08392696	233
16.10063823	244
16.1173495	264
16.13406077	251
16.15077204	241
16.16748331	254
16.18419458	217
16.20090585	234
16.21761711	232
16.23432838	247
16.25103965	197
16.26775092	241
16.28446219	248
16.30117346	220
16.31788473	250
16.334596	207
16.35130727	227
16.36801854	235
16.3847298	224
16.40144107	234
16.41815234	243
16.43486361	246
16.45157488	206
16.46828615	244
16.48499742	241
16.50170869	229
16.51841996	267
16.53513123	255
16.55184249	239
16.56855376	208
16.58526503	237
16.6019763	249
16.61868757	219
16.63539884	258
16.65211011	223
16.66882138	245
16.68553265	235
16.70224391	239
16.71895518	229
16.73566645	227
16.75237772	210
16.76908899	218
16.78580026	236
16.80251153	230
16.8192228	238
16.83593407	201
16.85264534	229
16.8693566	236
16.88606787	229
16.90277914	223
16.91949041	223
16.93620168	235
16.95291295	229
16.96962422	239
16.98633549	238
17.00304676	212
17.01975803	244
17.03646929	222
17.05318056	232
17.06989183	253
17.0866031	232
17.10331437	250
17.12002564	223
17.13673691	205
17.15344818	233
17.17015945	222
17.18687072	229
17.20358198	251
17.22029325	220
17.23700452	224
17.25371579	216
17.27042706	223
17.28713833	229
17.3038496	219
17.32056087	232
17.33727214	247
17.35398341	218
17.37069467	258
17.38740594	237
17.40411721	213
17.42082848	210
17.43753975	206
17.45425102	222
17.47096229	266
17.48767356	221
17.50438483	230
17.52109609	224
17.53780736	237
17.55451863	233
17.5712299	207
17.58794117	214
17.60465244	221
17.62136371	189
17.63807498	247
17.65478625	247
17.67149752	252
17.68820878	224
17.70492005	208
17.72163132	222
17.73834259	256
17.75505386	225
17.77176513	216
17.7884764	212
17.80518767	208
17.82189894	238
17.83861021	225
17.85532147	237
17.87203274	244
17.88874401	233
17.90545528	234
17.92216655	255
17.93887782	246
17.95558909	250
17.97230036	212
17.98901163	245
18.0057229	227
18.02243416	205
18.03914543	218
18.0558567	216
18.07256797	220
18.08927924	243
18.10599051	263
18.12270178	206
18.13941305	224
18.15612432	225
18.17283559	203
18.18954685	215
18.20625812	214
18.22296939	225
18.23968066	251
18.25639193	253
18.2731032	208
18.28981447	260
18.30652574	206
18.32323701	218
18.33994827	245
18.35665954	201
18.37337081	235
18.39008208	224
18.40679335	224
18.42350462	206
18.44021589	210
18.45692716	200
18.47363843	219
18.4903497	192
18.50706096	206
18.52377223	205
18.5404835	207
18.55719477	214
18.57390604	223
18.59061731	218
18.60732858	212
18.62403985	207
18.64075112	256
18.65746239	217
18.67417365	220
18.69088492	209
18.70759619	208
18.72430746	209
18.74101873	218
18.75773	206
18.77444127	233
18.79115254	206
18.80786381	214
18.82457508	239
18.84128634	222
18.85799761	222
18.87470888	209
18.89142015	215
18.90813142	204
18.92484269	208
18.94155396	214
18.95826523	209
18.9749765	184
18.99168776	235
19.00839903	212
19.0251103	221
19.04182157	192
19.05853284	223
19.07524411	215
19.09195538	218
19.10866665	213
19.12537792	221
19.14208919	235
19.15880045	228
19.17551172	206
19.19222299	204
19.20893426	223
19.22564553	215
19.2423568	233
19.25906807	225
19.27577934	221
19.29249061	192
19.30920188	190
19.32591314	207
19.34262441	234
19.35933568	201
19.37604695	206
19.39275822	216
19.40946949	223
19.42618076	214
19.44289203	230
19.4596033	201
19.47631457	199
19.49302583	212
19.5097371	247
19.52644837	236
19.54315964	233
19.55987091	193
19.57658218	208
19.59329345	201
19.61000472	218
19.62671599	202
19.64342726	202
19.66013852	243
19.67684979	217
19.69356106	209
19.71027233	203
19.7269836	201
19.74369487	222
19.76040614	197
19.77711741	216
19.79382868	216
19.81053994	193
19.82725121	209
19.84396248	232
19.86067375	217
19.87738502	206
19.89409629	206
19.91080756	214
19.92751883	230
19.9442301	218
19.96094137	188
19.97765263	238
19.9943639	173
20.01107517	224
20.02778644	231
20.04449771	209
20.06120898	203
20.07792025	194
20.09463152	213
20.11134279	245
20.12805406	204
20.14476532	201
20.16147659	199
20.17818786	201
20.19489913	204
20.2116104	228
20.22832167	234
20.24503294	235
20.26174421	203
20.27845548	212
20.29516675	206
20.31187801	207
20.32858928	216
20.34530055	231
20.36201182	216
20.37872309	222
20.39543436	187
20.41214563	200
20.4288569	216
20.44556817	197
20.46227943	203
20.4789907	206
20.49570197	209
20.51241324	195
20.52912451	210
20.54583578	207
20.56254705	205
20.57925832	234
20.59596959	182
20.61268086	207
20.62939212	202
20.64610339	198
20.66281466	203
20.67952593	216
20.6962372	188
20.71294847	221
20.72965974	200
20.74637101	194
20.76308228	204
20.77979355	222
20.79650481	197
20.81321608	231
20.82992735	203
20.84663862	193
20.86334989	231
20.88006116	205
20.89677243	201
20.9134837	201
20.93019497	200
20.94690624	215
20.9636175	198
20.98032877	209
20.99704004	209
21.01375131	199
21.03046258	201
21.04717385	227
21.06388512	208
21.08059639	236
21.09730766	213
21.11401893	199
21.13073019	216
21.14744146	227
21.16415273	236
21.180864	208
21.19757527	215
21.21428654	204
21.23099781	214
21.24770908	191
21.26442035	210
21.28113161	220
21.29784288	200
21.31455415	212
21.33126542	214
21.34797669	183
21.36468796	190
21.38139923	197
21.3981105	218
21.41482177	197
21.43153304	199
21.4482443	209
21.46495557	219
21.48166684	191
21.49837811	210
21.51508938	216
21.53180065	198
21.54851192	215
21.56522319	221
21.58193446	197
21.59864573	198
21.61535699	185
21.63206826	223
21.64877953	218
21.6654908	202
21.68220207	214
21.69891334	209
21.71562461	206
21.73233588	171
21.74904715	200
21.76575842	193
21.78246968	204
21.79918095	216
21.81589222	216
21.83260349	207
21.84931476	219
21.86602603	236
21.8827373	213
21.89944857	214
21.91615984	213
21.93287111	219
21.94958237	214
21.96629364	199
21.98300491	205
21.99971618	214
22.01642745	219
22.03313872	204
22.04984999	215
22.06656126	223
22.08327253	223
22.09998379	201
22.11669506	192
22.13340633	213
22.1501176	202
22.16682887	224
22.18354014	230
22.20025141	180
22.21696268	193
22.23367395	213
22.25038522	168
22.26709648	217
22.28380775	180
22.30051902	225
22.31723029	213
22.33394156	185
22.35065283	197
22.3673641	200
22.38407537	201
22.40078664	188
22.41749791	216
22.43420917	199
22.45092044	178
22.46763171	190
22.48434298	212
22.50105425	217
22.51776552	221
22.53447679	180
22.55118806	175
22.56789933	190
22.5846106	221
22.60132186	225
22.61803313	194
22.6347444	178
22.65145567	193
22.66816694	198
22.68487821	184
22.70158948	203
22.71830075	217
22.73501202	216
22.75172328	199
22.76843455	194
22.78514582	217
22.80185709	201
22.81856836	190
22.83527963	195
22.8519909	200
22.86870217	231
22.88541344	207
22.90212471	178
22.91883597	195
22.93554724	224
22.95225851	219
22.96896978	218
22.98568105	229
23.00239232	216
23.01910359	192
23.03581486	208
23.05252613	195
23.0692374	199
23.08594866	197
23.10265993	180
23.1193712	190
23.13608247	194
23.15279374	247
23.16950501	227
23.18621628	185
23.20292755	206
23.21963882	187
23.23635009	207
23.25306135	189
23.26977262	206
23.28648389	214
23.30319516	221
23.31990643	202
23.3366177	215
23.35332897	191
23.37004024	194
23.38675151	221
23.40346278	229
23.42017404	184
23.43688531	192
23.45359658	202
23.47030785	206
23.48701912	206
23.50373039	205
23.52044166	210
23.53715293	214
23.5538642	199
23.57057546	188
23.58728673	198
23.603998	195
23.62070927	178
23.63742054	202
23.65413181	207
23.67084308	210
23.68755435	205
23.70426562	192
23.72097689	189
23.73768815	193
23.75439942	199
23.77111069	187
23.78782196	233
23.80453323	213
23.8212445	184
23.83795577	190
23.85466704	208
23.87137831	168
23.88808958	200
23.90480084	190
23.92151211	205
23.93822338	204
23.95493465	182
23.97164592	205
23.98835719	190
24.00506846	189
24.02177973	189
24.038491	220
24.05520227	200
24.07191353	193
24.0886248	229
24.10533607	194
24.12204734	202
24.13875861	204
24.15546988	219
24.17218115	195
24.18889242	222
24.20560369	202
24.22231496	198
24.23902622	190
24.25573749	193
24.27244876	188
24.28916003	200
24.3058713	194
24.32258257	195
24.33929384	199
24.35600511	188
24.37271638	209
24.38942764	183
24.40613891	191
24.42285018	223
24.43956145	197
24.45627272	219
24.47298399	177
24.48969526	212
24.50640653	205
24.5231178	198
24.53982907	201
24.55654033	213
24.5732516	180
24.58996287	194
24.60667414	188
24.62338541	225
24.64009668	207
24.65680795	186
24.67351922	194
24.69023049	202
24.70694176	190
24.72365302	200
24.74036429	209
24.75707556	201
24.77378683	200
24.7904981	184
24.80720937	194
24.82392064	195
24.84063191	195
24.85734318	206
24.87405445	192
24.89076571	205
24.90747698	210
24.92418825	187
24.94089952	209
24.95761079	182
24.97432206	205
24.99103333	174
25.0077446	187
25.02445587	176
25.04116713	204
25.0578784	190
25.07458967	200
25.09130094	205
25.10801221	178
25.12472348	200
25.14143475	189
25.15814602	201
25.17485729	180
25.19156856	200
25.20827982	177
25.22499109	189
25.24170236	212
25.25841363	195
25.2751249	216
25.29183617	185
25.30854744	198
25.32525871	179
25.34196998	177
25.35868125	193
25.37539251	195
25.39210378	190
25.40881505	217
25.42552632	209
25.44223759	204
25.45894886	185
25.47566013	182
25.4923714	212
25.50908267	185
25.52579394	203
25.5425052	182
25.55921647	221
25.57592774	194
25.59263901	195
25.60935028	200
25.62606155	204
25.64277282	162
25.65948409	195
25.67619536	199
25.69290663	207
25.70961789	207
25.72632916	203
25.74304043	172
25.7597517	189
25.77646297	163
25.79317424	234
25.80988551	206
25.82659678	203
25.84330805	182
25.86001931	175
25.87673058	213
25.89344185	203
25.91015312	210
25.92686439	190
25.94357566	216
25.96028693	189
25.9769982	195
25.99370947	180
26.01042074	215
26.027132	200
26.04384327	184
26.06055454	159
26.07726581	210
26.09397708	183
26.11068835	201
26.12739962	212
26.14411089	174
26.16082216	218
26.17753343	200
26.19424469	225
26.21095596	194
26.22766723	210
26.2443785	158
26.26108977	203
26.27780104	192
26.29451231	201
26.31122358	198
26.32793485	191
26.34464612	188
26.36135738	169
26.37806865	199
26.39477992	229
26.41149119	187
26.42820246	164
26.44491373	182
26.461625	186
26.47833627	185
26.49504754	210
26.5117588	195
26.52847007	186
26.54518134	184
26.56189261	190
26.57860388	195
26.59531515	170
26.61202642	182
26.62873769	212
26.64544896	192
26.66216023	174
26.67887149	202
26.69558276	185
26.71229403	191
26.7290053	192
26.74571657	176
26.76242784	188
26.77913911	154
26.79585038	170
26.81256165	203
26.82927292	200
26.84598418	180
26.86269545	220
26.87940672	167
26.89611799	205
26.91282926	186
26.92954053	204
26.9462518	198
26.96296307	185
26.97967434	178
26.99638561	190
27.01309687	199
27.02980814	187
27.04651941	192
27.06323068	169
27.07994195	168
27.09665322	190
27.11336449	175
27.13007576	171
27.14678703	185
27.1634983	178
27.18020956	188
27.19692083	178
27.2136321	179
27.23034337	214
27.24705464	207
27.26376591	160
27.28047718	174
27.29718845	197
27.31389972	172
27.33061098	183
27.34732225	172
27.36403352	207
27.38074479	170
27.39745606	200
27.41416733	175
27.4308786	199
27.44758987	224
27.46430114	189
27.48101241	155
27.49772367	197
27.51443494	192
27.53114621	193
27.54785748	197
27.56456875	183
27.58128002	180
27.59799129	184
27.61470256	197
27.63141383	188
27.6481251	185
27.66483636	210
27.68154763	197
27.6982589	206
27.71497017	205
27.73168144	206
27.74839271	194
27.76510398	200
27.78181525	192
27.79852652	179
27.81523779	172
27.83194905	165
27.84866032	199
27.86537159	189
27.88208286	182
27.89879413	191
27.9155054	197
27.93221667	189
27.94892794	204
27.96563921	209
27.98235048	202
27.99906174	187
28.01577301	197
28.03248428	179
28.04919555	213
28.06590682	206
28.08261809	179
28.09932936	179
28.11604063	180
28.1327519	194
28.14946316	216
28.16617443	188
28.1828857	198
28.19959697	190
28.21630824	208
28.23301951	215
28.24973078	201
28.26644205	190
28.28315332	189
28.29986459	194
28.31657585	216
28.33328712	195
28.34999839	190
28.36670966	202
28.38342093	192
28.4001322	187
28.41684347	187
28.43355474	203
28.45026601	192
28.46697728	191
28.48368854	175
28.50039981	191
28.51711108	220
28.53382235	160
28.55053362	188
28.56724489	188
28.58395616	192
28.60066743	180
28.6173787	192
28.63408997	193
28.65080123	160
28.6675125	209
28.68422377	187
28.70093504	186
28.71764631	185
28.73435758	182
28.75106885	193
28.76778012	164
28.78449139	183
28.80120265	174
28.81791392	183
28.83462519	180
28.85133646	184
28.86804773	182
28.884759	206
28.90147027	171
28.91818154	176
28.93489281	197
28.95160408	198
28.96831534	187
28.98502661	176
29.00173788	199
29.01844915	197
29.03516042	163
29.05187169	224
29.06858296	192
29.08529423	143
29.1020055	198
29.11871677	197
29.13542803	170
29.1521393	183
29.16885057	159
29.18556184	184
29.20227311	168
29.21898438	193
29.23569565	168
29.25240692	194
29.26911819	179
29.28582946	194
29.30254072	200
29.31925199	180
29.33596326	174
29.35267453	187
29.3693858	173
29.38609707	183
29.40280834	169
29.41951961	198
29.43623088	190
29.45294215	185
29.46965341	197
29.48636468	163
29.50307595	177
29.51978722	185
29.53649849	197
29.55320976	183
29.56992103	183
29.5866323	199
29.60334357	165
29.62005483	180
29.6367661	180
29.65347737	185
29.67018864	183
29.68689991	206
29.70361118	148
29.72032245	174
29.73703372	184
29.75374499	161
29.77045626	187
29.78716752	188
29.80387879	147
29.82059006	187
29.83730133	172
29.8540126	191
29.87072387	220
29.88743514	189
29.90414641	175
29.92085768	180
29.93756895	182
29.95428021	190
29.97099148	204
29.98770275	163
30.00441402	215
30.02112529	182
30.03783656	184
30.05454783	161
30.0712591	190
30.08797037	198
30.10468164	173
30.1213929	182
30.13810417	156
30.15481544	184
30.17152671	193
30.18823798	210
30.20494925	202
30.22166052	180
30.23837179	167
30.25508306	194
30.27179432	189
30.28850559	192
30.30521686	192
30.32192813	205
30.3386394	177
30.35535067	207
30.37206194	194
30.38877321	187
30.40548448	185
30.42219575	186
30.43890701	162
30.45561828	174
30.47232955	184
30.48904082	164
30.50575209	202
30.52246336	186
30.53917463	190
30.5558859	178
30.57259717	175
30.58930844	203
30.6060197	189
30.62273097	201
30.63944224	188
30.65615351	186
30.67286478	178
30.68957605	202
30.70628732	190
30.72299859	159
30.73970986	209
30.75642113	191
30.77313239	193
30.78984366	206
30.80655493	182
30.8232662	212
30.83997747	217
30.85668874	209
30.87340001	180
30.89011128	186
30.90682255	182
30.92353382	172
30.94024508	184
30.95695635	155
30.97366762	169
30.99037889	190
31.00709016	192
31.02380143	190
31.0405127	172
31.05722397	217
31.07393524	179
31.0906465	182
31.10735777	178
31.12406904	174
31.14078031	189
31.15749158	194
31.17420285	192
31.19091412	204
31.20762539	205
31.22433666	178
31.24104793	193
31.25775919	182
31.27447046	190
31.29118173	161
31.307893	186
31.32460427	209
31.34131554	214
31.35802681	187
31.37473808	199
31.39144935	149
31.40816062	163
31.42487188	186
31.44158315	190
31.45829442	203
31.47500569	179
31.49171696	165
31.50842823	205
31.5251395	203
31.54185077	219
31.55856204	202
31.57527331	183
31.59198457	188
31.60869584	197
31.62540711	217
31.64211838	203
31.65882965	201
31.67554092	186
31.69225219	219
31.70896346	183
31.72567473	191
31.742386	200
31.75909726	201
31.77580853	189
31.7925198	199
31.80923107	185
31.82594234	201
31.84265361	221
31.85936488	200
31.87607615	215
31.89278742	225
31.90949868	217
31.92620995	229
31.94292122	171
31.95963249	217
31.97634376	182
31.99305503	200
32.0097663	202
32.02647757	210
32.04318884	220
32.05990011	195
32.07661137	195
32.09332264	205
32.11003391	223
32.12674518	221
32.14345645	184
32.16016772	212
32.17687899	214
32.19359026	197
32.21030153	179
32.2270128	183
32.24372406	212
32.26043533	217
32.2771466	186
32.29385787	185
32.31056914	183
32.32728041	186
32.34399168	192
32.36070295	189
32.37741422	198
32.39412549	210
32.41083675	175
32.42754802	199
32.44425929	202
32.46097056	202
32.47768183	172
32.4943931	162
32.51110437	193
32.52781564	194
32.54452691	198
32.56123817	197
32.57794944	217
32.59466071	209
32.61137198	175
32.62808325	205
32.64479452	200
32.66150579	208
32.67821706	182
32.69492833	178
32.7116396	185
32.72835086	210
32.74506213	202
32.7617734	209
32.77848467	194
32.79519594	182
32.81190721	233
32.82861848	195
32.84532975	198
32.86204102	200
32.87875229	214
32.89546355	192
32.91217482	217
32.92888609	202
32.94559736	213
32.96230863	220
32.9790199	161
32.99573117	198
33.01244244	223
33.02915371	232
33.04586498	203
33.06257624	200
33.07928751	222
33.09599878	223
33.11271005	202
33.12942132	202
33.14613259	174
33.16284386	200
33.17955513	214
33.1962664	218
33.21297767	240
33.22968893	221
33.2464002	201
33.26311147	197
33.27982274	203
33.29653401	185
33.31324528	229
33.32995655	221
33.34666782	214
33.36337909	218
33.38009035	212
33.39680162	230
33.41351289	216
33.43022416	214
33.44693543	215
33.4636467	214
33.48035797	232
33.49706924	194
33.51378051	207
33.53049178	188
33.54720304	217
33.56391431	234
33.58062558	186
33.59733685	192
33.61404812	219
33.63075939	218
33.64747066	202
33.66418193	212
33.6808932	195
33.69760447	216
33.71431573	216
33.731027	182
33.74773827	219
33.76444954	217
33.78116081	246
33.79787208	240
33.81458335	201
33.83129462	206
33.84800589	223
33.86471716	207
33.88142842	244
33.89813969	203
33.91485096	231
33.93156223	199
33.9482735	189
33.96498477	205
33.98169604	200
33.99840731	208
34.01511858	183
34.03182984	252
34.04854111	204
34.06525238	199
34.08196365	213
34.09867492	183
34.11538619	214
34.13209746	205
34.14880873	187
34.16552	209
34.18223127	184
34.19894253	193
34.2156538	210
34.23236507	191
34.24907634	219
34.26578761	208
34.28249888	208
34.29921015	192
34.31592142	186
34.33263269	209
34.34934396	218
34.36605522	208
34.38276649	245
34.39947776	241
34.41618903	187
34.4329003	220
34.44961157	216
34.46632284	221
34.48303411	214
34.49974538	215
34.51645665	205
34.53316791	223
34.54987918	219
34.56659045	186
34.58330172	229
34.60001299	225
34.61672426	233
34.63343553	208
34.6501468	205
34.66685807	217
34.68356934	192
34.7002806	216
34.71699187	217
34.73370314	216
34.75041441	190
34.76712568	189
34.78383695	202
34.80054822	231
34.81725949	200
34.83397076	191
34.85068202	214
34.86739329	201
34.88410456	214
34.90081583	204
34.9175271	224
34.93423837	210
34.95094964	220
34.96766091	231
34.98437218	223
35.00108345	225
35.01779471	217
35.03450598	216
35.05121725	194
35.06792852	221
35.08463979	234
35.10135106	182
35.11806233	240
35.1347736	208
35.15148487	210
35.16819614	199
35.1849074	207
35.20161867	231
35.21832994	212
35.23504121	215
35.25175248	213
35.26846375	210
35.28517502	190
35.30188629	219
35.31859756	189
35.33530883	219
35.35202009	221
35.36873136	187
35.38544263	189
35.4021539	183
35.41886517	184
35.43557644	197
35.45228771	202
35.46899898	194
35.48571025	222
35.50242152	193
35.51913278	195
35.53584405	186
35.55255532	191
35.56926659	218
35.58597786	200
35.60268913	223
35.6194004	179
35.63611167	186
35.65282294	189
35.6695342	203
35.68624547	203
35.70295674	209
35.71966801	209
35.73637928	209
35.75309055	190
35.76980182	200
35.78651309	213
35.80322436	205
35.81993563	249
35.83664689	193
35.85335816	233
35.87006943	210
35.8867807	186
35.90349197	195
35.92020324	195
35.93691451	203
35.95362578	199
35.97033705	199
35.98704832	236
36.00375958	216
36.02047085	201
36.03718212	218
36.05389339	220
36.07060466	235
36.08731593	209
36.1040272	223
36.12073847	220
36.13744974	230
36.15416101	210
36.17087227	220
36.18758354	227
36.20429481	245
36.22100608	239
36.23771735	231
36.25442862	294
36.27113989	294
36.28785116	290
36.30456243	288
36.32127369	358
36.33798496	337
36.35469623	344
36.3714075	446
36.38811877	491
36.40483004	731
36.42154131	1070
36.43825258	1414
36.45496385	1751
36.47167512	1949
36.48838638	1974
36.50509765	2156
36.52180892	2258
36.53852019	2354
36.55523146	2400
36.57194273	2570
36.588654	2566
36.60536527	2270
36.62207654	2105
36.63878781	2157
36.65549907	2061
36.67221034	1908
36.68892161	1716
36.70563288	1440
36.72234415	1177
36.73905542	1039
36.75576669	913
36.77247796	705
36.78918923	599
36.8059005	496
36.82261176	417
36.83932303	316
36.8560343	283
36.87274557	274
36.88945684	243
36.90616811	236
36.92287938	229
36.93959065	223
36.95630192	207
36.97301319	228
36.98972445	205
37.00643572	219
37.02314699	208
37.03985826	207
37.05656953	208
37.0732808	202
37.08999207	204
37.10670334	195
37.12341461	188
37.14012587	205
37.15683714	240
37.17354841	214
37.19025968	191
37.20697095	212
37.22368222	220
37.24039349	186
37.25710476	203
37.27381603	220
37.2905273	188
37.30723856	179
37.32394983	208
37.3406611	182
37.35737237	198
37.37408364	207
37.39079491	182
37.40750618	199
37.42421745	171
37.44092872	179
37.45763999	203
37.47435125	190
37.49106252	193
37.50777379	182
37.52448506	222
37.54119633	221
37.5579076	190
37.57461887	185
37.59133014	230
37.60804141	207
37.62475268	186
37.64146394	205
37.65817521	186
37.67488648	183
37.69159775	184
37.70830902	206
37.72502029	185
37.74173156	193
37.75844283	203
37.7751541	192
37.79186537	156
37.80857663	162
37.8252879	205
37.84199917	192
37.85871044	186
37.87542171	178
37.89213298	214
37.90884425	177
37.92555552	190
37.94226679	171
37.95897805	184
37.97568932	164
37.99240059	164
38.00911186	190
38.02582313	191
38.0425344	182
38.05924567	205
38.07595694	194
38.09266821	169
38.10937948	177
38.12609074	170
38.14280201	182
38.15951328	180
38.17622455	152
38.19293582	206
38.20964709	212
38.22635836	186
38.24306963	192
38.2597809	169
38.27649217	213
38.29320343	191
38.3099147	169
38.32662597	164
38.34333724	200
38.36004851	200
38.37675978	205
38.39347105	184
38.41018232	192
38.42689359	156
38.44360486	176
38.46031612	186
38.47702739	165
38.49373866	182
38.51044993	183
38.5271612	192
38.54387247	185
38.56058374	177
38.57729501	168
38.59400628	204
38.61071754	193
38.62742881	187
38.64414008	200
38.66085135	190
38.67756262	183
38.69427389	175
38.71098516	173
38.72769643	155
38.7444077	177
38.76111897	167
38.77783023	185
38.7945415	190
38.81125277	177
38.82796404	197
38.84467531	153
38.86138658	161
38.87809785	186
38.89480912	171
38.91152039	190
38.92823166	172
38.94494292	194
38.96165419	160
38.97836546	184
38.99507673	178
39.011788	209
39.02849927	177
39.04521054	183
39.06192181	172
39.07863308	189
39.09534435	199
39.11205561	222
39.12876688	201
39.14547815	243
39.16218942	244
39.17890069	278
39.19561196	246
39.21232323	256
39.2290345	248
39.24574577	262
39.26245704	238
39.2791683	255
39.29587957	279
39.31259084	294
39.32930211	253
39.34601338	254
39.36272465	247
39.37943592	225
39.39614719	215
39.41285846	244
39.42956972	261
39.44628099	250
39.46299226	212
39.47970353	191
39.4964148	177
39.51312607	209
39.52983734	216
39.54654861	222
39.56325988	191
39.57997115	186
39.59668241	182
39.61339368	165
39.63010495	174
39.64681622	152
39.66352749	177
39.68023876	157
39.69695003	201
39.7136613	179
39.73037257	183
39.74708384	189
39.7637951	188
39.78050637	175
39.79721764	183
39.81392891	191
39.83064018	134
39.84735145	160
39.86406272	178
39.88077399	139
39.89748526	192
39.91419653	186
39.93090779	163
39.94761906	193
39.96433033	174
39.9810416	188
39.99775287	182
40.01446414	163
40.03117541	197
40.04788668	201
40.06459795	198
40.08130921	187
40.09802048	183
40.11473175	167
40.13144302	177
40.14815429	172
40.16486556	172
40.18157683	184
40.1982881	189
40.21499937	172
40.23171064	175
40.2484219	176
40.26513317	172
40.28184444	155
40.29855571	174
40.31526698	162
40.33197825	185
40.34868952	183
40.36540079	185
40.38211206	134
40.39882333	194
40.41553459	156
40.43224586	164
40.44895713	173
40.4656684	169
40.48237967	148
40.49909094	163
40.51580221	176
40.53251348	193
40.54922475	189
40.56593602	171
40.58264728	177
40.59935855	170
40.61606982	175
40.63278109	173
40.64949236	179
40.66620363	170
40.6829149	175
40.69962617	152
40.71633744	199
40.73304871	180
40.74975997	172
40.76647124	160
40.78318251	173
40.79989378	150
40.81660505	163
40.83331632	188
40.85002759	162
40.86673886	172
40.88345013	146
40.90016139	173
40.91687266	169
40.93358393	160
40.9502952	171
40.96700647	182
40.98371774	194
41.00042901	188
41.01714028	160
41.03385155	171
41.05056282	152
41.06727408	177
41.08398535	175
41.10069662	150
41.11740789	172
41.13411916	190
41.15083043	186
41.1675417	199
41.18425297	168
41.20096424	184
41.21767551	172
41.23438677	169
41.25109804	195
41.26780931	183
41.28452058	165
41.30123185	167
41.31794312	157
41.33465439	189
41.35136566	185
41.36807693	167
41.3847882	157
41.40149946	169
41.41821073	163
41.434922	185
41.45163327	160
41.46834454	175
41.48505581	178
41.50176708	161
41.51847835	174
41.53518962	193
41.55190089	195
41.56861215	214
41.58532342	182
41.60203469	165
41.61874596	205
41.63545723	175
41.6521685	230
41.66887977	169
41.68559104	176
41.70230231	165
41.71901357	188
41.73572484	179
41.75243611	176
41.76914738	174
41.78585865	187
41.80256992	160
41.81928119	167
41.83599246	174
41.85270373	183
41.869415	174
41.88612626	169
41.90283753	176
41.9195488	173
41.93626007	184
41.95297134	174
41.96968261	172
41.98639388	170
42.00310515	203
42.01981642	142
42.03652769	175
42.05323895	169
42.06995022	170
42.08666149	188
42.10337276	155
42.12008403	188
42.1367953	171
42.15350657	176
42.17021784	169
42.18692911	176
42.20364038	164
42.22035164	169
42.23706291	180
42.25377418	190
42.27048545	214
42.28719672	183
42.30390799	173
42.32061926	167
42.33733053	165
42.3540418	186
42.37075306	178
42.38746433	179
42.4041756	159
42.42088687	186
42.43759814	176
42.45430941	186
42.47102068	179
42.48773195	169
42.50444322	176
42.52115449	205
42.53786575	186
42.55457702	183
42.57128829	191
42.58799956	163
42.60471083	180
42.6214221	160
42.63813337	153
42.65484464	183
42.67155591	190
42.68826718	175
42.70497844	214
42.72168971	170
42.73840098	186
42.75511225	169
42.77182352	184
42.78853479	185
42.80524606	154
42.82195733	194
42.8386686	188
42.85537987	179
42.87209113	191
42.8888024	194
42.90551367	184
42.92222494	172
42.93893621	193
42.95564748	185
42.97235875	190
42.98907002	202
43.00578129	183
43.02249256	205
43.03920382	197
43.05591509	210
43.07262636	193
43.08933763	197
43.1060489	203
43.12276017	208
43.13947144	220
43.15618271	197
43.17289398	199
43.18960524	215
43.20631651	246
43.22302778	240
43.23973905	268
43.25645032	280
43.27316159	264
43.28987286	283
43.30658413	328
43.3232954	394
43.34000667	516
43.35671793	714
43.3734292	960
43.39014047	1186
43.40685174	1269
43.42356301	1230
43.44027428	1177
43.45698555	1121
43.47369682	1305
43.49040809	1398
43.50711936	1518
43.52383062	1622
43.54054189	1535
43.55725316	1519
43.57396443	1528
43.5906757	1608
43.60738697	1445
43.62409824	1224
43.64080951	1033
43.65752078	963
43.67423205	867
43.69094331	860
43.70765458	805
43.72436585	705
43.74107712	603
43.75778839	477
43.77449966	409
43.79121093	373
43.8079222	346
43.82463347	344
43.84134473	360
43.858056	306
43.87476727	349
43.89147854	278
43.90818981	299
43.92490108	307
43.94161235	284
43.95832362	318
43.97503489	271
43.99174616	271
44.00845742	282
44.02516869	284
44.04187996	251
44.05859123	259
44.0753025	260
44.09201377	266
44.10872504	237
44.12543631	261
44.14214758	232
44.15885885	228
44.17557011	228
44.19228138	213
44.20899265	237
44.22570392	228
44.24241519	235
44.25912646	229
44.27583773	243
44.292549	192
44.30926027	229
44.32597154	208
44.3426828	259
44.35939407	230
44.37610534	247
44.39281661	251
44.40952788	283
44.42623915	251
44.44295042	273
44.45966169	275
44.47637296	245
44.49308423	243
44.50979549	275
44.52650676	279
44.54321803	295
44.5599293	340
44.57664057	275
44.59335184	340
44.61006311	308
44.62677438	298
44.64348565	299
44.66019691	336
44.67690818	306
44.69361945	312
44.71033072	298
44.72704199	280
44.74375326	308
44.76046453	304
44.7771758	314
44.79388707	256
44.81059834	276
44.8273096	259
44.84402087	252
44.86073214	273
44.87744341	248
44.89415468	253
44.91086595	248
44.92757722	231
44.94428849	213
44.96099976	244
44.97771103	217
44.99442229	213
45.01113356	222
45.02784483	240
45.0445561	216
45.06126737	207
45.07797864	185
45.09468991	178
45.11140118	195
45.12811245	197
45.14482372	204
45.16153498	194
45.17824625	180
45.19495752	201
45.21166879	149
45.22838006	179
45.24509133	168
45.2618026	193
45.27851387	174
45.29522514	187
45.31193641	180
45.32864767	169
45.34535894	182
45.36207021	171
45.37878148	156
45.39549275	173
45.41220402	185
45.42891529	157
45.44562656	169
45.46233783	182
45.47904909	158
45.49576036	162
45.51247163	176
45.5291829	190
45.54589417	187
45.56260544	184
45.57931671	141
45.59602798	205
45.61273925	157
45.62945052	155
45.64616178	164
45.66287305	170
45.67958432	154
45.69629559	155
45.71300686	146
45.72971813	138
45.7464294	161
45.76314067	177
45.77985194	201
45.79656321	149
45.81327447	142
45.82998574	156
45.84669701	163
45.86340828	183
45.88011955	149
45.89683082	147
45.91354209	158
45.93025336	149
45.94696463	176
45.9636759	141
45.98038716	140
45.99709843	153
46.0138097	161
46.03052097	141
46.04723224	148
46.06394351	155
46.08065478	140
46.09736605	161
46.11407732	163
46.13078858	156
46.14749985	133
46.16421112	144
46.18092239	156
46.19763366	138
46.21434493	124
46.2310562	157
46.24776747	173
46.26447874	148
46.28119001	139
46.29790127	163
46.31461254	148
46.33132381	153
46.34803508	154
46.36474635	145
46.38145762	148
46.39816889	162
46.41488016	152
46.43159143	176
46.4483027	139
46.46501396	157
46.48172523	125
46.4984365	146
46.51514777	155
46.53185904	176
46.54857031	159
46.56528158	133
46.58199285	144
46.59870412	152
46.61541539	146
46.63212665	124
46.64883792	165
46.66554919	124
46.68226046	183
46.69897173	163
46.715683	175
46.73239427	159
46.74910554	150
46.76581681	175
46.78252808	170
46.79923934	149
46.81595061	156
46.83266188	158
46.84937315	147
46.86608442	149
46.88279569	145
46.89950696	176
46.91621823	161
46.9329295	140
46.94964076	154
46.96635203	165
46.9830633	143
46.99977457	137
47.01648584	170
47.03319711	147
47.04990838	175
47.06661965	167
47.08333092	175
47.10004219	148
47.11675345	164
47.13346472	144
47.15017599	143
47.16688726	146
47.18359853	150
47.2003098	164
47.21702107	159
47.23373234	168
47.25044361	162
47.26715488	162
47.28386614	142
47.30057741	160
47.31728868	142
47.33399995	125
47.35071122	152
47.36742249	156
47.38413376	143
47.40084503	148
47.4175563	145
47.43426757	163
47.45097883	129
47.4676901	171
47.48440137	137
47.50111264	154
47.51782391	172
47.53453518	135
47.55124645	153
47.56795772	146
47.58466899	170
47.60138025	131
47.61809152	134
47.63480279	144
47.65151406	156
47.66822533	182
47.6849366	134
47.70164787	146
47.71835914	148
47.73507041	148
47.75178168	141
47.76849294	158
47.78520421	165
47.80191548	162
47.81862675	140
47.83533802	143
47.85204929	157
47.86876056	162
47.88547183	148
47.9021831	153
47.91889437	133
47.93560563	143
47.9523169	152
47.96902817	131
47.98573944	148
48.00245071	153
48.01916198	149
48.03587325	155
48.05258452	145
48.06929579	160
48.08600706	141
48.10271832	157
48.11942959	138
48.13614086	140
48.15285213	163
48.1695634	138
48.18627467	172
48.20298594	149
48.21969721	158
48.23640848	160
48.25311975	169
48.26983101	162
48.28654228	164
48.30325355	148
48.31996482	141
48.33667609	141
48.35338736	155
48.37009863	146
48.3868099	130
48.40352117	127
48.42023243	138
48.4369437	145
48.45365497	147
48.47036624	145
48.48707751	150
48.50378878	145
48.52050005	150
48.53721132	169
48.55392259	140
48.57063386	137
48.58734512	143
48.60405639	127
48.62076766	139
48.63747893	165
48.6541902	171
48.67090147	132
48.68761274	167
48.70432401	143
48.72103528	154
48.73774655	145
48.75445781	160
48.77116908	113
48.78788035	140
48.80459162	143
48.82130289	150
48.83801416	158
48.85472543	133
48.8714367	129
48.88814797	130
48.90485924	146
48.9215705	135
48.93828177	131
48.95499304	143
48.97170431	146
48.98841558	155
49.00512685	154
49.02183812	144
49.03854939	158
49.05526066	129
49.07197193	129
49.08868319	124
49.10539446	130
49.12210573	162
49.138817	132
49.15552827	159
49.17223954	154
49.18895081	147
49.20566208	147
49.22237335	150
49.23908461	153
49.25579588	139
49.27250715	146
49.28921842	152
49.30592969	143
49.32264096	129
49.33935223	140
49.3560635	123
49.37277477	149
49.38948604	122
49.4061973	130
49.42290857	140
49.43961984	144
49.45633111	156
49.47304238	135
49.48975365	127
49.50646492	130
49.52317619	138
49.53988746	145
49.55659873	138
49.57330999	152
49.59002126	156
49.60673253	142
49.6234438	130
49.64015507	140
49.65686634	142
49.67357761	143
49.69028888	132
49.70700015	134
49.72371142	163
49.74042268	138
49.75713395	137
49.77384522	162
49.79055649	145
49.80726776	156
49.82397903	161
49.8406903	148
49.85740157	142
49.87411284	133
49.8908241	145
49.90753537	132
49.92424664	148
49.94095791	176
49.95766918	138
49.97438045	142
49.99109172	157
50.00780299	117
50.02451426	152
50.04122553	147
50.05793679	139
50.07464806	156
50.09135933	150
50.1080706	150
50.12478187	154
50.14149314	140
50.15820441	155
50.17491568	176
50.19162695	163
50.20833822	155
50.22504948	150
50.24176075	135
50.25847202	155
50.27518329	165
50.29189456	153
50.30860583	154
50.3253171	158
50.34202837	161
50.35873964	149
50.37545091	180
50.39216217	169
50.40887344	161
50.42558471	187
50.44229598	177
50.45900725	158
50.47571852	134
50.49242979	162
50.50914106	203
50.52585233	190
50.5425636	163
50.55927486	178
50.57598613	179
50.5926974	173
50.60940867	167
50.62611994	173
50.64283121	173
50.65954248	165
50.67625375	183
50.69296502	168
50.70967628	150
50.72638755	148
50.74309882	167
50.75981009	185
50.77652136	154
50.79323263	175
50.8099439	165
50.82665517	175
50.84336644	153
50.86007771	153
50.87678897	174
50.89350024	175
50.91021151	157
50.92692278	148
50.94363405	175
50.96034532	158
50.97705659	144
50.99376786	161
51.01047913	169
51.0271904	156
51.04390166	162
51.06061293	169
51.0773242	140
51.09403547	167
51.11074674	140
51.12745801	149
51.14416928	158
51.16088055	164
51.17759182	146
51.19430309	168
51.21101435	155
51.22772562	133
51.24443689	149
51.26114816	148
51.27785943	137
51.2945707	147
51.31128197	150
51.32799324	135
51.34470451	150
51.36141578	169
51.37812704	143
51.39483831	129
51.41154958	137
51.42826085	148
51.44497212	155
51.46168339	160
51.47839466	134
51.49510593	155
51.5118172	129
51.52852846	169
51.54523973	127
51.561951	134
51.57866227	171
51.59537354	141
51.61208481	133
51.62879608	129
51.64550735	139
51.66221862	149
51.67892989	157
51.69564115	131
51.71235242	145
51.72906369	152
51.74577496	167
51.76248623	148
51.7791975	134
51.79590877	126
51.81262004	157
51.82933131	137
51.84604258	134
51.86275384	152
51.87946511	145
51.89617638	155
51.91288765	139
51.92959892	149
51.94631019	139
51.96302146	138
51.97973273	130
51.996444	140
52.01315527	146
52.02986653	165
52.0465778	163
52.06328907	124
52.08000034	155
52.09671161	150
52.11342288	149
52.13013415	149
52.14684542	144
52.16355669	125
52.18026795	150
52.19697922	128
52.21369049	120
52.23040176	144
52.24711303	122
52.2638243	156
52.28053557	134
52.29724684	135
52.31395811	134
52.33066938	137
52.34738064	113
52.36409191	137
52.38080318	141
52.39751445	135
52.41422572	140
52.43093699	134
52.44764826	125
52.46435953	129
52.4810708	160
52.49778207	132
52.51449333	139
52.5312046	117
52.54791587	142
52.56462714	155
52.58133841	131
52.59804968	135
52.61476095	137
52.63147222	176
52.64818349	119
52.66489476	120
52.68160602	140
52.69831729	120
52.71502856	126
52.73173983	147
52.7484511	115
52.76516237	131
52.78187364	110
52.79858491	148
52.81529618	144
52.83200745	148
52.84871871	143
52.86542998	135
52.88214125	146
52.89885252	130
52.91556379	129
52.93227506	132
52.94898633	134
52.9656976	148
52.98240887	138
52.99912013	137
53.0158314	141
53.03254267	153
53.04925394	156
53.06596521	123
53.08267648	141
53.09938775	141
53.11609902	138
53.13281029	145
53.14952156	148
53.16623282	133
53.18294409	163
53.19965536	123
53.21636663	156
53.2330779	126
53.24978917	134
53.26650044	149
53.28321171	169
53.29992298	129
53.31663425	124
53.33334551	148
53.35005678	106
53.36676805	143
53.38347932	157
53.40019059	127
53.41690186	126
53.43361313	123
53.4503244	129
53.46703567	126
53.48374694	154
53.5004582	146
53.51716947	132
53.53388074	140
53.55059201	141
53.56730328	138
53.58401455	126
53.60072582	142
53.61743709	135
53.63414836	139
53.65085962	143
53.66757089	131
53.68428216	140
53.70099343	124
53.7177047	147
53.73441597	131
53.75112724	147
53.76783851	111
53.78454978	150
53.80126105	145
53.81797231	150
53.83468358	148
53.85139485	140
53.86810612	133
53.88481739	146
53.90152866	127
53.91823993	147
53.9349512	149
53.95166247	142
53.96837374	132
53.985085	124
54.00179627	170
54.01850754	129
54.03521881	135
54.05193008	157
54.06864135	135
54.08535262	170
54.10206389	153
54.11877516	160
54.13548643	141
54.15219769	165
54.16890896	156
54.18562023	140
54.2023315	141
54.21904277	154
54.23575404	161
54.25246531	152
54.26917658	205
54.28588785	160
54.30259912	198
54.31931038	187
54.33602165	206
54.35273292	203
54.36944419	230
54.38615546	232
54.40286673	225
54.419578	292
54.43628927	290
54.45300054	425
54.4697118	590
54.48642307	791
54.50313434	954
54.51984561	1047
54.53655688	1150
54.55326815	1116
54.56997942	1133
54.58669069	1105
54.60340196	1117
54.62011323	1203
54.63682449	1254
54.65353576	1299
54.67024703	1238
54.6869583	1239
54.70366957	1113
54.72038084	989
54.73709211	873
54.75380338	687
54.77051465	627
54.78722592	608
54.80393718	522
54.82064845	498
54.83735972	481
54.85407099	397
54.87078226	340
54.88749353	270
54.9042048	212
54.92091607	186
54.93762734	163
54.95433861	154
54.97104987	168
54.98776114	172
55.00447241	157
55.02118368	170
55.03789495	146
55.05460622	158
55.07131749	152
55.08802876	155
55.10474003	145
55.1214513	159
55.13816256	165
55.15487383	133
55.1715851	138
55.18829637	148
55.20500764	147
55.22171891	130
55.23843018	135
55.25514145	146
55.27185272	126
55.28856398	146
55.30527525	132
55.32198652	132
55.33869779	149
55.35540906	133
55.37212033	152
55.3888316	132
55.40554287	120
55.42225414	133
55.43896541	145
55.45567667	118
55.47238794	113
55.48909921	138
55.50581048	143
55.52252175	133
55.53923302	123
55.55594429	141
55.57265556	154
55.58936683	141
55.6060781	147
55.62278936	138
55.63950063	142
55.6562119	150
55.67292317	132
55.68963444	127
55.70634571	125
55.72305698	135
55.73976825	117
55.75647952	143
55.77319079	145
55.78990205	129
55.80661332	133
55.82332459	137
55.84003586	145
55.85674713	137
55.8734584	143
55.89016967	145
55.90688094	123
55.92359221	131
55.94030347	141
55.95701474	145
55.97372601	133
55.99043728	122
56.00714855	127
56.02385982	139
56.04057109	153
56.05728236	148
56.07399363	134
56.0907049	129
56.10741616	115
56.12412743	156
56.1408387	158
56.15754997	153
56.17426124	148
56.19097251	122
56.20768378	155
56.22439505	152
56.24110632	146
56.25781759	124
56.27452885	139
56.29124012	141
56.30795139	140
56.32466266	133
56.34137393	120
56.3580852	134
56.37479647	158
56.39150774	135
56.40821901	116
56.42493028	125
56.44164154	128
56.45835281	135
56.47506408	145
56.49177535	152
56.50848662	130
56.52519789	129
56.54190916	134
56.55862043	142
56.5753317	150
56.59204297	149
56.60875423	159
56.6254655	131
56.64217677	142
56.65888804	148
56.67559931	139
56.69231058	146
56.70902185	124
56.72573312	148
56.74244439	132
56.75915565	133
56.77586692	141
56.79257819	133
56.80928946	127
56.82600073	135
56.842712	140
56.85942327	147
56.87613454	170
56.89284581	132
56.90955708	142
56.92626834	140
56.94297961	123
56.95969088	125
56.97640215	131
56.99311342	125
57.00982469	139
57.02653596	125
57.04324723	131
57.0599585	135
57.07666977	149
57.09338103	159
57.1100923	146
57.12680357	118
57.14351484	154
57.16022611	134
57.17693738	137
57.19364865	124
57.21035992	129
57.22707119	125
57.24378246	139
57.26049372	120
57.27720499	118
57.29391626	106
57.31062753	122
57.3273388	153
57.34405007	133
57.36076134	120
57.37747261	129
57.39418388	149
57.41089514	125
57.42760641	134
57.44431768	140
57.46102895	122
57.47774022	129
57.49445149	125
57.51116276	132
57.52787403	128
57.5445853	123
57.56129657	154
57.57800783	138
57.5947191	152
57.61143037	131
57.62814164	140
57.64485291	116
57.66156418	138
57.67827545	125
57.69498672	124
57.71169799	125
57.72840926	144
57.74512052	134
57.76183179	172
57.77854306	123
57.79525433	146
57.8119656	153
57.82867687	148
57.84538814	128
57.86209941	123
57.87881068	156
57.89552195	108
57.91223321	129
57.92894448	134
57.94565575	132
57.96236702	124
57.97907829	142
57.99578956	142
58.01250083	130
58.0292121	141
58.04592337	155
58.06263464	149
58.0793459	138
58.09605717	135
58.11276844	144
58.12947971	148
58.14619098	122
58.16290225	134
58.17961352	117
58.19632479	148
58.21303606	137
58.22974732	137
58.24645859	135
58.26316986	126
58.27988113	146
58.2965924	140
58.31330367	117
58.33001494	118
58.34672621	133
58.36343748	142
58.38014875	165
58.39686001	131
58.41357128	167
58.43028255	125
58.44699382	127
58.46370509	134
58.48041636	113
58.49712763	131
58.5138389	135
58.53055017	149
58.54726144	142
58.5639727	162
58.58068397	131
58.59739524	134
58.61410651	139
58.63081778	156
58.64752905	129
58.66424032	157
58.68095159	144
58.69766286	127
58.71437413	135
58.73108539	133
58.74779666	135
58.76450793	141
58.7812192	124
58.79793047	146
58.81464174	134
58.83135301	127
58.84806428	150
58.86477555	133
58.88148682	118
58.89819808	145
58.91490935	124
58.93162062	144
58.94833189	117
58.96504316	125
58.98175443	124
58.9984657	119
59.01517697	127
59.03188824	154
59.0485995	130
59.06531077	117
59.08202204	137
59.09873331	109
59.11544458	146
59.13215585	123
59.14886712	132
59.16557839	125
59.18228966	143
59.19900093	147
59.21571219	138
59.23242346	143
59.24913473	149
59.265846	154
59.28255727	129
59.29926854	129
59.31597981	118
59.33269108	110
59.34940235	139
59.36611362	124
59.38282488	129
59.39953615	135
59.41624742	147
59.43295869	125
59.44966996	144
59.46638123	138
59.4830925	138
59.49980377	128
59.51651504	145
59.53322631	127
59.54993757	128
59.56664884	147
59.58336011	127
59.60007138	144
59.61678265	134
59.63349392	150
59.65020519	142
59.66691646	108
59.68362773	134
59.70033899	153
59.71705026	138
59.73376153	125
59.7504728	150
59.76718407	145
59.78389534	138
59.80060661	133
59.81731788	146
59.83402915	123
59.85074042	153
59.86745168	120
59.88416295	125
59.90087422	113
59.91758549	134
59.93429676	155
59.95100803	117
59.9677193	134
59.98443057	142
60.00114184	138
60.01785311	145
60.03456437	148
60.05127564	128
60.06798691	134
60.08469818	126
60.10140945	155
60.11812072	137
60.13483199	122
60.15154326	158
60.16825453	126
60.1849658	134
60.20167706	134
60.21838833	137
60.2350996	127
60.25181087	130
60.26852214	148
60.28523341	139
60.30194468	138
60.31865595	152
60.33536722	140
60.35207849	134
60.36878975	127
60.38550102	134
60.40221229	128
60.41892356	131
60.43563483	118
60.4523461	127
60.46905737	134
60.48576864	142
60.50247991	140
60.51919117	154
60.53590244	123
60.55261371	126
60.56932498	129
60.58603625	134
60.60274752	120
60.61945879	133
60.63617006	126
60.65288133	139
60.6695926	148
60.68630386	125
60.70301513	106
60.7197264	143
60.73643767	123
60.75314894	134
60.76986021	131
60.78657148	139
60.80328275	125
60.81999402	145
60.83670529	124
60.85341655	120
60.87012782	132
60.88683909	139
60.90355036	150
60.92026163	125
60.9369729	117
60.95368417	132
60.97039544	103
60.98710671	137
61.00381798	141
61.02052924	124
61.03724051	127
61.05395178	119
61.07066305	107
61.08737432	108
61.10408559	113
61.12079686	143
61.13750813	128
61.1542194	115
61.17093066	117
61.18764193	142
61.2043532	127
61.22106447	127
61.23777574	134
61.25448701	128
61.27119828	133
61.28790955	142
61.30462082	147
61.32133209	161
61.33804335	130
61.35475462	117
61.37146589	148
61.38817716	134
61.40488843	152
61.4215997	142
61.43831097	124
61.45502224	137
61.47173351	134
61.48844478	123
61.50515604	127
61.52186731	125
61.53857858	118
61.55528985	130
61.57200112	144
61.58871239	132
61.60542366	119
61.62213493	127
61.6388462	130
61.65555747	122
61.67226873	132
61.68898	123
61.70569127	129
61.72240254	135
61.73911381	133
61.75582508	124
61.77253635	163
61.78924762	146
61.80595889	140
61.82267016	115
61.83938142	135
61.85609269	130
61.87280396	127
61.88951523	127
61.9062265	131
61.92293777	139
61.93964904	143
61.95636031	145
61.97307158	120
61.98978284	147
62.00649411	120
62.02320538	108
62.03991665	135
62.05662792	146
62.07333919	132
62.09005046	124
62.10676173	150
62.123473	129
62.14018427	126
62.15689553	131
62.1736068	140
62.19031807	144
62.20702934	124
62.22374061	134
62.24045188	145
62.25716315	128
62.27387442	150
62.29058569	125
62.30729696	133
62.32400822	103
62.34071949	122
62.35743076	142
62.37414203	153
62.3908533	157
62.40756457	127
62.42427584	144
62.44098711	123
62.45769838	130
62.47440965	170
62.49112091	116
62.50783218	152
62.52454345	146
62.54125472	135
62.55796599	130
62.57467726	132
62.59138853	119
62.6080998	149
62.62481107	126
62.64152234	118
62.6582336	145
62.67494487	153
62.69165614	137
62.70836741	157
62.72507868	165
62.74178995	140
62.75850122	160
62.77521249	144
62.79192376	163
62.80863502	127
62.82534629	125
62.84205756	146
62.85876883	134
62.8754801	140
62.89219137	135
62.90890264	137
62.92561391	158
62.94232518	141
62.95903645	113
62.97574771	120
62.99245898	132
63.00917025	141
63.02588152	145
63.04259279	145
63.05930406	140
63.07601533	131
63.0927266	129
63.10943787	139
63.12614914	133
63.1428604	134
63.15957167	139
63.17628294	141
63.19299421	156
63.20970548	128
63.22641675	133
63.24312802	143
63.25983929	148
63.27655056	139
63.29326183	128
63.30997309	138
63.32668436	128
63.34339563	130
63.3601069	161
63.37681817	125
63.39352944	118
63.41024071	113
63.42695198	130
63.44366325	132
63.46037451	130
63.47708578	158
63.49379705	153
63.51050832	156
63.52721959	145
63.54393086	134
63.56064213	147
63.5773534	125
63.59406467	135
63.61077594	132
63.6274872	141
63.64419847	138
63.66090974	135
63.67762101	140
63.69433228	134
63.71104355	160
63.72775482	123
63.74446609	137
63.76117736	125
63.77788863	149
63.79459989	146
63.81131116	139
63.82802243	145
63.8447337	120
63.86144497	160
63.87815624	148
63.89486751	168
63.91157878	142
63.92829005	147
63.94500132	147
63.96171258	153
63.97842385	159
63.99513512	146
64.01184639	157
64.02855766	154
64.04526893	165
64.0619802	155
64.07869147	149
64.09540274	179
64.11211401	144
64.12882527	162
64.14553654	134
64.16224781	185
64.17895908	154
64.19567035	163
64.21238162	167
64.22909289	167
64.24580416	167
64.26251543	167
64.27922669	149
64.29593796	188
64.31264923	187
64.3293605	191
64.34607177	195
64.36278304	182
64.37949431	175
64.39620558	209
64.41291685	210
64.42962812	222
64.44633938	201
64.46305065	221
64.47976192	200
64.49647319	190
64.51318446	194
64.52989573	191
64.546607	194
64.56331827	201
64.58002954	214
64.59674081	207
64.61345207	208
64.63016334	213
64.64687461	218
64.66358588	192
64.68029715	209
64.69700842	200
64.71371969	198
64.73043096	173
64.74714223	239
64.7638535	230
64.78056476	212
64.79727603	215
64.8139873	208
64.83069857	203
64.84740984	218
64.86412111	207
64.88083238	207
64.89754365	204
64.91425492	205
64.93096619	220
64.94767745	251
64.96438872	194
64.98109999	224
64.99781126	197
65.01452253	180
65.0312338	199
65.04794507	192
65.06465634	198
65.08136761	212
65.09807887	221
65.11479014	177
65.13150141	203
65.14821268	185
65.16492395	178
65.18163522	194
65.19834649	190
65.21505776	195
65.23176903	186
65.2484803	197
65.26519156	162
65.28190283	174
65.2986141	177
65.31532537	197
65.33203664	176
65.34874791	167
65.36545918	177
65.38217045	155
65.39888172	168
65.41559299	197
65.43230425	191
65.44901552	145
65.46572679	177
65.48243806	171
65.49914933	168
65.5158606	154
65.53257187	164
65.54928314	160
65.56599441	161
65.58270568	149
65.59941694	155
65.61612821	164
65.63283948	149
65.64955075	137
65.66626202	153
65.68297329	148
65.69968456	149
65.71639583	158
65.7331071	137
65.74981836	160
65.76652963	148
65.7832409	128
65.79995217	149
65.81666344	131
65.83337471	156
65.85008598	158
65.86679725	148
65.88350852	163
65.90021979	135
65.91693105	139
65.93364232	140
65.95035359	138
65.96706486	154
65.98377613	145
66.0004874	138
66.01719867	167
66.03390994	154
66.05062121	146
66.06733248	162
66.08404374	146
66.10075501	135
66.11746628	153
66.13417755	142
66.15088882	148
66.16760009	149
66.18431136	144
66.20102263	138
66.2177339	157
66.23444517	115
66.25115643	150
66.2678677	154
66.28457897	135
66.30129024	137
66.31800151	150
66.33471278	145
66.35142405	154
66.36813532	124
66.38484659	147
66.40155786	163
66.41826912	149
66.43498039	134
66.45169166	139
66.46840293	144
66.4851142	117
66.50182547	126
66.51853674	127
66.53524801	114
66.55195928	148
66.56867054	141
66.58538181	128
66.60209308	138
66.61880435	162
66.63551562	164
66.65222689	132
66.66893816	147
66.68564943	138
66.7023607	124
66.71907197	132
66.73578323	144
66.7524945	126
66.76920577	150
66.78591704	135
66.80262831	129
66.81933958	159
66.83605085	108
66.85276212	155
66.86947339	117
66.88618466	158
66.90289592	147
66.91960719	133
66.93631846	142
66.95302973	147
66.969741	159
66.98645227	131
67.00316354	145
67.01987481	170
67.03658608	134
67.05329735	150
67.07000861	145
67.08671988	154
67.10343115	147
67.12014242	163
67.13685369	144
67.15356496	149
67.17027623	139
67.1869875	153
67.20369877	143
67.22041003	141
67.2371213	129
67.25383257	146
67.27054384	150
67.28725511	153
67.30396638	131
67.32067765	141
67.33738892	161
67.35410019	134
67.37081146	134
67.38752272	142
67.40423399	124
67.42094526	115
67.43765653	141
67.4543678	153
67.47107907	124
67.48779034	153
67.50450161	149
67.52121288	152
67.53792415	149
67.55463541	112
67.57134668	118
67.58805795	152
67.60476922	122
67.62148049	156
67.63819176	126
67.65490303	137
67.6716143	129
67.68832557	142
67.70503684	127
67.7217481	137
67.73845937	135
67.75517064	170
67.77188191	140
67.78859318	133
67.80530445	120
67.82201572	128
67.83872699	122
67.85543826	144
67.87214953	155
67.88886079	154
67.90557206	170
67.92228333	126
67.9389946	132
67.95570587	150
67.97241714	126
67.98912841	153
68.00583968	144
68.02255095	150
68.03926221	153
68.05597348	149
68.07268475	154
68.08939602	137
68.10610729	123
68.12281856	132
68.13952983	139
68.1562411	119
68.17295237	144
68.18966364	141
68.2063749	135
68.22308617	152
68.23979744	137
68.25650871	140
68.27321998	134
68.28993125	150
68.30664252	140
68.32335379	158
68.34006506	134
68.35677633	158
68.37348759	137
68.39019886	129
68.40691013	148
68.4236214	127
68.44033267	148
68.45704394	134
68.47375521	139
68.49046648	131
68.50717775	167
68.52388902	142
68.54060028	127
68.55731155	156
68.57402282	119
68.59073409	141
68.60744536	137
68.62415663	159
68.6408679	138
68.65757917	143
68.67429044	143
68.69100171	160
68.70771297	115
68.72442424	117
68.74113551	149
68.75784678	147
68.77455805	147
68.79126932	125
68.80798059	144
68.82469186	154
68.84140313	142
68.85811439	159
68.87482566	133
68.89153693	162
68.9082482	149
68.92495947	153
68.94167074	154
68.95838201	143
68.97509328	153
68.99180455	124
69.00851582	146
69.02522708	137
69.04193835	153
69.05864962	130
69.07536089	155
69.09207216	150
69.10878343	154
69.1254947	128
69.14220597	137
69.15891724	167
69.17562851	154
69.19233977	138
69.20905104	142
69.22576231	135
69.24247358	149
69.25918485	142
69.27589612	132
69.29260739	153
69.30931866	152
69.32602993	137
69.3427412	144
69.35945246	137
69.37616373	150
69.392875	144
69.40958627	140
69.42629754	177
69.44300881	130
69.45972008	142
69.47643135	154
69.49314262	148
69.50985388	127
69.52656515	130
69.54327642	180
69.55998769	141
69.57669896	135
69.59341023	164
69.6101215	159
69.62683277	150
69.64354404	156
69.66025531	160
69.67696657	150
69.69367784	168
69.71038911	135
69.72710038	150
69.74381165	133
69.76052292	153
69.77723419	157
69.79394546	160
69.81065673	207
69.827368	139
69.84407926	165
69.86079053	141
69.8775018	179
69.89421307	170
69.91092434	170
69.92763561	199
69.94434688	213
69.96105815	184
69.97776942	198
69.99448069	195
70.01119195	213
70.02790322	206
70.04461449	256
70.06132576	258
70.07803703	266
70.0947483	274
70.11145957	278
70.12817084	319
70.14488211	322
70.16159338	379
70.17830464	471
70.19501591	594
70.21172718	799
70.22843845	1121
70.24514972	1544
70.26186099	2043
70.27857226	2496
70.29528353	2810
70.3119948	2824
70.32870606	2683
70.34541733	2743
70.3621286	2433
70.37883987	2298
70.39555114	2260
70.41226241	2406
70.42897368	2323
70.44568495	2312
70.46239622	2322
70.47910749	2162
70.49581875	2035
70.51253002	1814
70.52924129	1625
70.54595256	1523
70.56266383	1414
70.5793751	1218
70.59608637	1219
70.61279764	1103
70.62950891	1072
70.64622018	961
70.66293144	765
70.67964271	596
70.69635398	449
70.71306525	401
70.72977652	296
70.74648779	295
70.76319906	260
70.77991033	234
70.7966216	259
70.81333287	247
70.83004413	250
70.8467554	224
70.86346667	255
70.88017794	252
70.89688921	237
70.91360048	228
70.93031175	252
70.94702302	230
70.96373429	220
70.98044555	225
70.99715682	202
71.01386809	214
71.03057936	210
71.04729063	179
71.0640019	195
71.08071317	199
71.09742444	208
71.11413571	178
71.13084698	218
71.14755824	183
71.16426951	157
71.18098078	178
71.19769205	186
71.21440332	177
71.23111459	180
71.24782586	163
71.26453713	153
71.2812484	159
71.29795967	150
71.31467093	146
71.3313822	150
71.34809347	174
71.36480474	148
71.38151601	142
71.39822728	139
71.41493855	162
71.43164982	172
71.44836109	143
71.46507236	148
71.48178362	173
71.49849489	146
71.51520616	152
71.53191743	152
71.5486287	140
71.56533997	146
71.58205124	153
71.59876251	118
71.61547378	155
71.63218505	142
71.64889631	134
71.66560758	141
71.68231885	148
71.69903012	146
71.71574139	130
71.73245266	135
71.74916393	139
71.7658752	135
71.78258647	142
71.79929773	128
71.816009	138
71.83272027	142
71.84943154	156
71.86614281	155
71.88285408	128
71.89956535	135
71.91627662	134
71.93298789	146
71.94969916	160
71.96641042	135
71.98312169	148
71.99983296	141
72.01654423	142
72.0332555	112
72.04996677	159
72.06667804	148
72.08338931	156
72.10010058	141
72.11681185	139
72.13352311	156
72.15023438	127
72.16694565	147
72.18365692	144
72.20036819	145
72.21707946	155
72.23379073	150
72.250502	144
72.26721327	150
72.28392454	129
72.3006358	140
72.31734707	152
72.33405834	122
72.35076961	162
72.36748088	126
72.38419215	149
72.40090342	148
72.41761469	140
72.43432596	126
72.45103723	131
72.46774849	139
72.48445976	140
72.50117103	122
72.5178823	146
72.53459357	146
72.55130484	157
72.56801611	140
72.58472738	133
72.60143865	110
72.61814991	150
72.63486118	131
72.65157245	130
72.66828372	128
72.68499499	145
72.70170626	140
72.71841753	163
72.7351288	138
72.75184007	137
72.76855134	131
72.7852626	143
72.80197387	116
72.81868514	135
72.83539641	134
72.85210768	114
72.86881895	139
72.88553022	123
72.90224149	137
72.91895276	138
72.93566403	130
72.95237529	141
72.96908656	128
72.98579783	117
73.0025091	138
73.01922037	154
73.03593164	145
73.05264291	141
73.06935418	132
73.08606545	146
73.10277672	135
73.11948798	139
73.13619925	120
73.15291052	130
73.16962179	140
73.18633306	154
73.20304433	142
73.2197556	146
73.23646687	130
73.25317814	169
73.2698894	149
73.28660067	164
73.30331194	148
73.32002321	140
73.33673448	139
73.35344575	143
73.37015702	135
73.38686829	127
73.40357956	156
73.42029083	108
73.43700209	115
73.45371336	144
73.47042463	132
73.4871359	155
73.50384717	156
73.52055844	128
73.53726971	146
73.55398098	152
73.57069225	150
73.58740352	120
73.60411478	128
73.62082605	160
73.63753732	159
73.65424859	127
73.67095986	138
73.68767113	150
73.7043824	144
73.72109367	144
73.73780494	155
73.75451621	155
73.77122747	143
73.78793874	146
73.80465001	155
73.82136128	142
73.83807255	171
73.85478382	159
73.87149509	140
73.88820636	155
73.90491763	123
73.9216289	153
73.93834016	146
73.95505143	164
73.9717627	155
73.98847397	171
74.00518524	160
74.02189651	135
74.03860778	179
74.05531905	158
74.07203032	163
74.08874158	147
74.10545285	158
74.12216412	193
74.13887539	155
74.15558666	189
74.17229793	190
74.1890092	180
74.20572047	158
74.22243174	186
74.23914301	194
74.25585427	202
74.27256554	193
74.28927681	204
74.30598808	165
74.32269935	192
74.33941062	208
74.35612189	190
74.37283316	206
74.38954443	214
74.4062557	198
74.42296696	198
74.43967823	214
74.4563895	214
74.47310077	233
74.48981204	215
74.50652331	235
74.52323458	224
74.53994585	252
74.55665712	274
74.57336839	263
74.59007965	262
74.60679092	259
74.62350219	284
74.64021346	293
74.65692473	288
74.673636	298
74.69034727	295
74.70705854	322
74.72376981	310
74.74048107	290
74.75719234	331
74.77390361	324
74.79061488	298
74.80732615	314
74.82403742	301
74.84074869	340
74.85745996	351
74.87417123	351
74.8908825	310
74.90759376	353
74.92430503	328
74.9410163	376
74.95772757	364
74.97443884	352
74.99115011	306
75.00786138	329
75.02457265	326
75.04128392	294
75.05799519	335
75.07470645	282
75.09141772	319
75.10812899	276
75.12484026	291
75.14155153	326
75.1582628	296
75.17497407	293
75.19168534	249
75.20839661	262
75.22510788	298
75.24181914	280
75.25853041	217
75.27524168	278
75.29195295	237
75.30866422	246
75.32537549	233
75.34208676	235
75.35879803	235
75.3755093	168
75.39222057	210
75.40893183	223
75.4256431	225
75.44235437	210
75.45906564	176
75.47577691	193
75.49248818	192
75.50919945	190
75.52591072	204
75.54262199	234
75.55933325	184
75.57604452	161
75.59275579	175
75.60946706	178
75.62617833	180
75.6428896	194
75.65960087	160
75.67631214	165
75.69302341	158
75.70973468	145
75.72644594	161
75.74315721	154
75.75986848	159
75.77657975	187
75.79329102	180
75.81000229	132
75.82671356	138
75.84342483	150
75.8601361	149
75.87684737	145
75.89355863	145
75.9102699	147
75.92698117	157
75.94369244	148
75.96040371	140
75.97711498	147
75.99382625	141
76.01053752	159
76.02724879	141
76.04396006	123
76.06067132	133
76.07738259	167
76.09409386	152
76.11080513	125
76.1275164	139
76.14422767	140
76.16093894	119
76.17765021	127
76.19436148	125
76.21107275	133
76.22778401	122
76.24449528	133
76.26120655	118
76.27791782	141
76.29462909	154
76.31134036	118
76.32805163	134
76.3447629	133
76.36147417	114
76.37818543	154
76.3948967	145
76.41160797	134
76.42831924	116
76.44503051	134
76.46174178	112
76.47845305	131
76.49516432	135
76.51187559	125
76.52858686	139
76.54529812	118
76.56200939	133
76.57872066	140
76.59543193	119
76.6121432	146
76.62885447	134
76.64556574	128
76.66227701	126
76.67898828	110
76.69569955	142
76.71241081	128
76.72912208	122
76.74583335	123
76.76254462	125
76.77925589	118
76.79596716	140
76.81267843	129
76.8293897	116
76.84610097	131
76.86281224	119
76.8795235	124
76.89623477	116
76.91294604	165
76.92965731	125
76.94636858	132
76.96307985	146
76.97979112	116
76.99650239	108
77.01321366	118
77.02992492	138
77.04663619	131
77.06334746	126
77.08005873	154
77.09677	117
77.11348127	132
77.13019254	138
77.14690381	130
77.16361508	141
77.18032635	157
77.19703761	162
77.21374888	200
77.23046015	187
77.24717142	202
77.26388269	222
77.28059396	254
77.29730523	217
77.3140165	240
77.33072777	202
77.34743904	224
77.3641503	209
77.38086157	223
77.39757284	204
77.41428411	208
77.43099538	210
77.44770665	195
77.46441792	220
77.48112919	175
77.49784046	177
77.51455173	189
77.53126299	150
77.54797426	188
77.56468553	159
77.5813968	157
77.59810807	153
77.61481934	165
77.63153061	164
77.64824188	146
77.66495315	155
77.68166442	160
77.69837568	138
77.71508695	134
77.73179822	126
77.74850949	116
77.76522076	133
77.78193203	130
77.7986433	125
77.81535457	122
77.83206584	112
77.8487771	119
77.86548837	126
77.88219964	126
77.89891091	108
77.91562218	125
77.93233345	138
77.94904472	101
77.96575599	128
77.98246726	104
77.99917853	108
78.01588979	114
78.03260106	124
78.04931233	132
78.0660236	111
78.08273487	99
78.09944614	120
78.11615741	127
78.13286868	106
78.14957995	123
78.16629122	117
78.18300248	132
78.19971375	119
78.21642502	133
78.23313629	127
78.24984756	95
78.26655883	139
78.2832701	109
78.29998137	124
78.31669264	104
78.33340391	119
78.35011517	112
78.36682644	117
78.38353771	96
78.40024898	114
78.41696025	99
78.43367152	104
78.45038279	114
78.46709406	141
78.48380533	123
78.5005166	117
78.51722786	117
78.53393913	129
78.5506504	132
78.56736167	125
78.58407294	117
78.60078421	133
78.61749548	114
78.63420675	113
78.65091802	127
78.66762928	118
78.68434055	80
78.70105182	123
78.71776309	126
78.73447436	118
78.75118563	126
78.7678969	118
78.78460817	120
78.80131944	126
78.81803071	112
78.83474197	95
78.85145324	123
78.86816451	132
78.88487578	120
78.90158705	110
78.91829832	128
78.93500959	107
78.95172086	130
78.96843213	114
78.9851434	116
79.00185466	109
79.01856593	116
79.0352772	131
79.05198847	104
79.06869974	132
79.08541101	111
79.10212228	132
79.11883355	123
79.13554482	108
79.15225609	120
79.16896735	116
79.18567862	110
79.20238989	116
79.21910116	120
79.23581243	80
79.2525237	112
79.26923497	118
79.28594624	114
79.30265751	134
79.31936877	125
79.33608004	111
79.35279131	104
79.36950258	131
79.38621385	115
79.40292512	116
79.41963639	100
79.43634766	131
79.45305893	102
79.4697702	94
79.48648146	108
79.50319273	126
79.519904	103
79.53661527	107
79.55332654	122
79.57003781	117
79.58674908	102
79.60346035	119
79.62017162	112
79.63688289	107
79.65359415	124
79.67030542	125
79.68701669	100
79.70372796	129
79.72043923	106
79.7371505	97
79.75386177	100
79.77057304	108
79.78728431	127
79.80399558	106
79.82070684	126
79.83741811	126
79.85412938	123
79.87084065	114
79.88755192	119
79.90426319	126
79.92097446	92
79.93768573	131
79.954397	100
79.97110827	107
79.98781953	119
80.0045308	122
80.02124207	126
80.03795334	110
80.05466461	116
80.07137588	112
80.08808715	108
80.10479842	119
80.12150969	109
80.13822095	107
80.15493222	120
80.17164349	99
80.18835476	99
80.20506603	110
80.2217773	109
80.23848857	106
80.25519984	91
80.27191111	123
80.28862238	96
80.30533364	124
80.32204491	113
80.33875618	104
80.35546745	116
80.37217872	101
80.38888999	118
80.40560126	132
80.42231253	101
80.4390238	114
80.45573507	115
80.47244633	108
80.4891576	116
80.50586887	125
80.52258014	112
80.53929141	120
80.55600268	113
80.57271395	131
80.58942522	131
80.60613649	103
80.62284776	144
80.63955902	124
80.65627029	132
80.67298156	141
80.68969283	122
80.7064041	119
80.72311537	110
80.73982664	100
80.75653791	134
80.77324918	116
80.78996044	137
80.80667171	109
80.82338298	124
80.84009425	117
80.85680552	126
80.87351679	122
80.89022806	119
80.90693933	117
80.9236506	110
80.94036187	118
80.95707313	125
80.9737844	115
80.99049567	109
81.00720694	134
81.02391821	135
81.04062948	113
81.05734075	122
81.07405202	120
81.09076329	140
81.10747456	111
81.12418582	137
81.14089709	108
81.15760836	115
81.17431963	142
81.1910309	132
81.20774217	133
81.22445344	117
81.24116471	129
81.25787598	120
81.27458725	131
81.29129851	131
81.30800978	153
81.32472105	124
81.34143232	120
81.35814359	127
81.37485486	137
81.39156613	146
81.4082774	139
81.42498867	139
81.44169994	149
81.4584112	133
81.47512247	131
81.49183374	113
81.50854501	141
81.52525628	153
81.54196755	154
81.55867882	149
81.57539009	153
81.59210136	144
81.60881262	127
81.62552389	153
81.64223516	179
81.65894643	169
81.6756577	157
81.69236897	171
81.70908024	179
81.72579151	175
81.74250278	207
81.75921405	180
81.77592531	167
81.79263658	185
81.80934785	177
81.82605912	194
81.84277039	190
81.85948166	206
81.87619293	192
81.8929042	217
81.90961547	185
81.92632674	228
81.943038	191
81.95974927	202
81.97646054	218
81.99317181	209
82.00988308	204
82.02659435	198
82.04330562	219
82.06001689	203
82.07672816	223
82.09343943	210
82.11015069	225
82.12686196	241
82.14357323	243
82.1602845	203
82.17699577	230
82.19370704	238
82.21041831	255
82.22712958	318
82.24384085	320
82.26055212	357
82.27726338	384
82.29397465	401
82.31068592	370
82.32739719	414
82.34410846	383
82.36081973	426
82.377531	353
82.39424227	394
82.41095354	387
82.4276648	390
82.44437607	385
82.46108734	331
82.47779861	331
82.49450988	305
82.51122115	280
82.52793242	259
82.54464369	277
82.56135496	283
82.57806623	282
82.59477749	270
82.61148876	307
82.62820003	271
82.6449113	263
82.66162257	253
82.67833384	225
82.69504511	247
82.71175638	238
82.72846765	217
82.74517892	203
82.76189018	182
82.77860145	145
82.79531272	141
82.81202399	167
82.82873526	171
82.84544653	170
82.8621578	146
82.87886907	149
82.89558034	138
82.91229161	154
82.92900287	116
82.94571414	131
82.96242541	144
82.97913668	139
82.99584795	150
83.01255922	127
83.02927049	130
83.04598176	142
83.06269303	140
83.07940429	133
83.09611556	148
83.11282683	135
83.1295381	118
83.14624937	142
83.16296064	137
83.17967191	145
83.19638318	129
83.21309445	149
83.22980572	142
83.24651698	134
83.26322825	91
83.27993952	146
83.29665079	112
83.31336206	107
83.33007333	102
83.3467846	129
83.36349587	118
83.38020714	113
83.39691841	104
83.41362967	132
83.43034094	125
83.44705221	123
83.46376348	132
83.48047475	115
83.49718602	119
83.51389729	114
83.53060856	108
83.54731983	97
83.5640311	138
83.58074236	101
83.59745363	109
83.6141649	110
83.63087617	115
83.64758744	100
83.66429871	135
83.68100998	127
83.69772125	110
83.71443252	111
83.73114379	120
83.74785505	130
83.76456632	114
83.78127759	127
83.79798886	110
83.81470013	113
83.8314114	125
83.84812267	127
83.86483394	119
83.88154521	113
83.89825647	125
83.91496774	120
83.93167901	131
83.94839028	130
83.96510155	104
83.98181282	124
83.99852409	98
84.01523536	119
84.03194663	111
84.0486579	112
84.06536916	111
84.08208043	123
84.0987917	126
84.11550297	117
84.13221424	122
84.14892551	116
84.16563678	108
84.18234805	139
84.19905932	139
84.21577059	124
84.23248185	112
84.24919312	124
84.26590439	109
84.28261566	113
84.29932693	122
84.3160382	124
84.33274947	129
84.34946074	122
84.36617201	116
84.38288328	112
84.39959454	118
84.41630581	122
84.43301708	112
84.44972835	104
84.46643962	111
84.48315089	107
84.49986216	119
84.51657343	130
84.5332847	109
84.54999596	89
84.56670723	119
84.5834185	102
84.60012977	100
84.61684104	102
84.63355231	118
84.65026358	97
84.66697485	132
84.68368612	111
84.70039739	107
84.71710865	126
84.73381992	124
84.75053119	123
84.76724246	100
84.78395373	100
84.800665	118
84.81737627	87
84.83408754	101
84.85079881	98
84.86751008	112
84.88422134	131
84.90093261	122
84.91764388	98
84.93435515	131
84.95106642	126
84.96777769	93
84.98448896	102
85.00120023	94
85.0179115	119
85.03462277	95
85.05133403	107
85.0680453	110
85.08475657	128
85.10146784	112
85.11817911	110
85.13489038	113
85.15160165	113
85.16831292	131
85.18502419	119
85.20173546	106
85.21844672	128
85.23515799	96
85.25186926	110
85.26858053	96
85.2852918	108
85.30200307	110
85.31871434	98
85.33542561	107
85.35213688	79
85.36884814	103
85.38555941	102
85.40227068	100
85.41898195	109
85.43569322	129
85.45240449	109
85.46911576	108
85.48582703	114
85.5025383	141
85.51924957	102
85.53596083	122
85.5526721	115
85.56938337	96
85.58609464	92
85.60280591	86
85.61951718	115
85.63622845	91
85.65293972	106
85.66965099	100
85.68636226	93
85.70307352	95
85.71978479	108
85.73649606	108
85.75320733	125
85.7699186	117
85.78662987	118
85.80334114	91
85.82005241	126
85.83676368	103
85.85347495	104
85.87018621	109
85.88689748	110
85.90360875	126
85.92032002	110
85.93703129	101
85.95374256	114
85.97045383	93
85.9871651	114
86.00387637	117
86.02058764	87
86.0372989	106
86.05401017	115
86.07072144	104
86.08743271	104
86.10414398	96
86.12085525	123
86.13756652	91
86.15427779	111
86.17098906	116
86.18770032	110
86.20441159	96
86.22112286	113
86.23783413	97
86.2545454	101
86.27125667	102
86.28796794	83
86.30467921	108
86.32139048	128
86.33810175	138
86.35481301	117
86.37152428	109
86.38823555	128
86.40494682	104
86.42165809	120
86.43836936	107
86.45508063	114
86.4717919	107
86.48850317	108
86.50521444	86
86.5219257	93
86.53863697	124
86.55534824	99
86.57205951	113
86.58877078	118
86.60548205	130
86.62219332	130
86.63890459	114
86.65561586	119
86.67232713	134
86.68903839	133
86.70574966	142
86.72246093	142
86.7391722	117
86.75588347	159
86.77259474	169
86.78930601	159
86.80601728	169
86.82272855	170
86.83943981	168
86.85615108	138
86.87286235	146
86.88957362	150
86.90628489	144
86.92299616	123
86.93970743	139
86.9564187	148
86.97312997	120
86.98984124	134
87.0065525	115
87.02326377	137
87.03997504	138
87.05668631	138
87.07339758	157
87.09010885	120
87.10682012	131
87.12353139	130
87.14024266	148
87.15695393	131
87.17366519	131
87.19037646	111
87.20708773	113
87.223799	104
87.24051027	103
87.25722154	116
87.27393281	127
87.29064408	108
87.30735535	108
87.32406662	92
87.34077788	103
87.35748915	123
87.37420042	111
87.39091169	94
87.40762296	115
87.42433423	115
87.4410455	110
87.45775677	101
87.47446804	124
87.49117931	108
87.50789057	115
87.52460184	110
87.54131311	112
87.55802438	99
87.57473565	123
87.59144692	118
87.60815819	97
87.62486946	101
87.64158073	103
87.65829199	111
87.67500326	101
87.69171453	99
87.7084258	96
87.72513707	130
87.74184834	111
87.75855961	94
87.77527088	112
87.79198215	113
87.80869342	114
87.82540468	104
87.84211595	106
87.85882722	118
87.87553849	117
87.89224976	100
87.90896103	107
87.9256723	110
87.94238357	100
87.95909484	113
87.97580611	112
87.99251737	116
88.00922864	123
88.02593991	125
88.04265118	107
88.05936245	104
88.07607372	96
88.09278499	96
88.10949626	108
88.12620753	89
88.1429188	98
88.15963006	107
88.17634133	97
88.1930526	117
88.20976387	110
88.22647514	114
88.24318641	122
88.25989768	94
88.27660895	116
88.29332022	83
88.31003148	116
88.32674275	122
88.34345402	118
88.36016529	114
88.37687656	118
88.39358783	123
88.4102991	102
88.42701037	113
88.44372164	127
88.46043291	96
88.47714417	104
88.49385544	101
88.51056671	95
88.52727798	125
88.54398925	114
88.56070052	97
88.57741179	101
88.59412306	97
88.61083433	126
88.6275456	106
88.64425686	97
88.66096813	123
88.6776794	103
88.69439067	104
88.71110194	100
88.72781321	112
88.74452448	98
88.76123575	97
88.77794702	100
88.79465829	116
88.81136955	85
88.82808082	104
88.84479209	99
88.86150336	100
88.87821463	102
88.8949259	114
88.91163717	104
88.92834844	108
88.94505971	122
88.96177098	106
88.97848224	129
88.99519351	111
89.01190478	106
89.02861605	123
89.04532732	123
89.06203859	113
89.07874986	85
89.09546113	110
89.1121724	101
89.12888366	92
89.14559493	111
89.1623062	112
89.17901747	109
89.19572874	114
89.21244001	106
89.22915128	108
89.24586255	111
89.26257382	123
89.27928509	127
89.29599635	102
89.31270762	120
89.32941889	110
89.34613016	110
89.36284143	133
89.3795527	115
89.39626397	110
89.41297524	114
89.42968651	111
89.44639778	129
89.46310904	127
89.47982031	99
89.49653158	127
89.51324285	115
89.52995412	130
89.54666539	119
89.56337666	129
89.58008793	104
89.5967992	118
89.61351047	124
89.63022173	114
89.646933	94
89.66364427	120
89.68035554	125
89.69706681	116
89.71377808	130
89.73048935	126
89.74720062	128
89.76391189	150
89.78062316	150
89.79733442	140
89.81404569	112
89.83075696	126
89.84746823	128
89.8641795	103
89.88089077	134
89.89760204	133
89.91431331	155
89.93102458	139
89.94773584	164
89.96444711	154
89.98115838	160
89.99786965	176
90.01458092	142
90.03129219	165
90.04800346	221
90.06471473	241
90.081426	305
90.09813727	370
90.11484853	403
90.1315598	445
90.14827107	501
90.16498234	546
90.18169361	524
90.19840488	493
90.21511615	410
90.23182742	443
90.24853869	441
90.26524996	427
90.28196122	389
90.29867249	391
90.31538376	299
90.33209503	288
90.3488063	222
90.36551757	252
90.38222884	265
90.39894011	308
90.41565138	337
90.43236265	335
90.44907391	335
90.46578518	340
90.48249645	343
90.49920772	309
90.51591899	289
90.53263026	259
90.54934153	279
90.5660528	253
90.58276407	227
90.59947533	187
90.6161866	160
90.63289787	175
90.64960914	157
90.66632041	163
90.68303168	146
90.69974295	161
90.71645422	160
90.73316549	148
90.74987676	167
90.76658802	161
90.78329929	159
90.80001056	156
90.81672183	104
90.8334331	148
90.85014437	157
90.86685564	152
90.88356691	138
90.90027818	138
90.91698945	165
90.93370071	171
90.95041198	134
90.96712325	130
90.98383452	158
91.00054579	135
91.01725706	143
91.03396833	140
91.0506796	139
91.06739087	132
91.08410214	144
91.1008134	120
91.11752467	155
91.13423594	128
91.15094721	123
91.16765848	127
91.18436975	148
91.20108102	149
91.21779229	140
91.23450356	122
91.25121483	129
91.26792609	132
91.28463736	122
91.30134863	127
91.3180599	133
91.33477117	122
91.35148244	138
91.36819371	132
91.38490498	110
91.40161625	129
91.41832751	112
91.43503878	120
91.45175005	124
91.46846132	106
91.48517259	155
91.50188386	138
91.51859513	131
91.5353064	119
91.55201767	100
91.56872894	122
91.5854402	119
91.60215147	111
91.61886274	110
91.63557401	113
91.65228528	103
91.66899655	107
91.68570782	122
91.70241909	115
91.71913036	111
91.73584163	116
91.75255289	119
91.76926416	96
91.78597543	118
91.8026867	114
91.81939797	111
91.83610924	129
91.85282051	126
91.86953178	106
91.88624305	114
91.90295432	115
91.91966558	95
91.93637685	122
91.95308812	111
91.96979939	97
91.98651066	122
92.00322193	117
92.0199332	129
92.03664447	122
92.05335574	95
92.07006701	117
92.08677827	122
92.10348954	118
92.12020081	118
92.13691208	110
92.15362335	83
92.17033462	107
92.18704589	117
92.20375716	98
92.22046843	114
92.23717969	110
92.25389096	95
92.27060223	102
92.2873135	86
92.30402477	108
92.32073604	110
92.33744731	106
92.35415858	116
92.37086985	108
92.38758112	94
92.40429238	89
92.42100365	103
92.43771492	102
92.45442619	128
92.47113746	107
92.48784873	101
92.50456	102
92.52127127	110
92.53798254	103
92.55469381	116
92.57140507	100
92.58811634	96
92.60482761	98
92.62153888	101
92.63825015	116
92.65496142	113
92.67167269	112
92.68838396	103
92.70509523	110
92.7218065	109
92.73851776	106
92.75522903	100
92.7719403	111
92.78865157	97
92.80536284	97
92.82207411	102
92.83878538	95
92.85549665	118
92.87220792	113
92.88891918	91
92.90563045	95
92.92234172	112
92.93905299	108
92.95576426	117
92.97247553	103
92.9891868	110
93.00589807	101
93.02260934	94
93.03932061	92
93.05603187	112
93.07274314	101
93.08945441	114
93.10616568	114
93.12287695	109
93.13958822	119
93.15629949	103
93.17301076	98
93.18972203	97
93.2064333	108
93.22314456	103
93.23985583	124
93.2565671	118
93.27327837	100
93.28998964	124
93.30670091	120
93.32341218	95
93.34012345	91
93.35683472	98
93.37354599	110
93.39025725	103
93.40696852	96
93.42367979	108
93.44039106	99
93.45710233	92
93.4738136	100
93.49052487	124
93.50723614	110
93.52394741	115
93.54065868	103
93.55736994	108
93.57408121	116
93.59079248	110
93.60750375	102
93.62421502	96
93.64092629	106
93.65763756	100
93.67434883	125
93.6910601	95
93.70777136	91
93.72448263	107
93.7411939	95
93.75790517	108
93.77461644	104
93.79132771	111
93.80803898	117
93.82475025	101
93.84146152	101
93.85817279	110
93.87488405	99
93.89159532	108
93.90830659	77
93.92501786	102
93.94172913	98
93.9584404	117
93.97515167	97
93.99186294	109
94.00857421	102
94.02528548	93
94.04199674	102
94.05870801	109
94.07541928	125
94.09213055	109
94.10884182	85
94.12555309	102
94.14226436	80
94.15897563	100
94.1756869	102
94.19239817	109
94.20910943	113
94.2258207	97
94.24253197	87
94.25924324	110
94.27595451	112
94.29266578	115
94.30937705	98
94.32608832	104
94.34279959	100
94.35951085	100
94.37622212	103
94.39293339	95
94.40964466	94
94.42635593	91
94.4430672	94
94.45977847	112
94.47648974	85
94.49320101	106
94.50991228	109
94.52662354	91
94.54333481	93
94.56004608	112
94.57675735	103
94.59346862	104
94.61017989	108
94.62689116	104
94.64360243	103
94.6603137	98
94.67702497	106
94.69373623	107
94.7104475	120
94.72715877	115
94.74387004	110
94.76058131	132
94.77729258	125
94.79400385	91
94.81071512	103
94.82742639	112
94.84413766	115
94.86084892	109
94.87756019	99
94.89427146	96
94.91098273	93
94.927694	107
94.94440527	103
94.96111654	109
94.97782781	107
94.99453908	96
95.01125035	87
95.02796161	120
95.04467288	119
95.06138415	129
95.07809542	138
95.09480669	124
95.11151796	118
95.12822923	148
95.1449405	131
95.16165177	108
95.17836303	147
95.1950743	120
95.21178557	131
95.22849684	144
95.24520811	129
95.26191938	99
95.27863065	102
95.29534192	107
95.31205319	117
95.32876446	118
95.34547572	102
95.36218699	115
95.37889826	119
95.39560953	124
95.4123208	110
95.42903207	133
95.44574334	128
95.46245461	88
95.47916588	108
95.49587715	108
95.51258841	115
95.52929968	111
95.54601095	112
95.56272222	103
95.57943349	118
95.59614476	109
95.61285603	112
95.6295673	95
95.64627857	101
95.66298984	124
95.6797011	112
95.69641237	98
95.71312364	99
95.72983491	115
95.74654618	113
95.76325745	114
95.77996872	106
95.79667999	114
95.81339126	111
95.83010253	127
95.84681379	115
95.86352506	92
95.88023633	115
95.8969476	116
95.91365887	103
95.93037014	91
95.94708141	132
95.96379268	95
95.98050395	111
95.99721521	129
96.01392648	104
96.03063775	116
96.04734902	110
96.06406029	108
96.08077156	106
96.09748283	101
96.1141941	102
96.13090537	117
96.14761664	116
96.1643279	111
96.18103917	110
96.19775044	114
96.21446171	107
96.23117298	102
96.24788425	107
96.26459552	110
96.28130679	106
96.29801806	115
96.31472933	103
96.33144059	109
96.34815186	100
96.36486313	130
96.3815744	109
96.39828567	102
96.41499694	109
96.43170821	110
96.44841948	100
96.46513075	104
96.48184202	110
96.49855328	113
96.51526455	127
96.53197582	106
96.54868709	96
96.56539836	94
96.58210963	114
96.5988209	104
96.61553217	82
96.63224344	98
96.6489547	107
96.66566597	115
96.68237724	115
96.69908851	81
96.71579978	76
96.73251105	122
96.74922232	108
96.76593359	119
96.78264486	102
96.79935613	102
96.81606739	106
96.83277866	99
96.84948993	94
96.8662012	109
96.88291247	106
96.89962374	101
96.91633501	83
96.93304628	88
96.94975755	100
96.96646882	96
96.98318008	94
96.99989135	119
97.01660262	103
97.03331389	100
97.05002516	95
97.06673643	112
97.0834477	102
97.10015897	94
97.11687024	87
97.13358151	107
97.15029277	93
97.16700404	119
97.18371531	93
97.20042658	93
97.21713785	108
97.23384912	103
97.25056039	117
97.26727166	113
97.28398293	89
97.3006942	111
97.31740546	108
97.33411673	93
97.350828	104
97.36753927	107
97.38425054	97
97.40096181	99
97.41767308	110
97.43438435	122
97.45109562	100
97.46780688	98
97.48451815	97
97.50122942	104
97.51794069	91
97.53465196	104
97.55136323	106
97.5680745	115
97.58478577	107
97.60149704	101
97.61820831	119
97.63491957	99
97.65163084	91
97.66834211	108
97.68505338	100
97.70176465	122
97.71847592	97
97.73518719	94
97.75189846	99
97.76860973	122
97.785321	100
97.80203226	106
97.81874353	119
97.8354548	89
97.85216607	95
97.86887734	99
97.88558861	109
97.90229988	95
97.91901115	106
97.93572242	101
97.95243369	94
97.96914495	124
97.98585622	91
98.00256749	98
98.01927876	98
98.03599003	86
98.0527013	91
98.06941257	107
98.08612384	81
98.10283511	95
98.11954637	92
98.13625764	118
98.15296891	70
98.16968018	86
98.18639145	102
98.20310272	108
98.21981399	107
98.23652526	108
98.25323653	78
98.2699478	88
98.28665906	91
98.30337033	96
98.3200816	119
98.33679287	111
98.35350414	93
98.37021541	98
98.38692668	102
98.40363795	126
98.42034922	103
98.43706049	110
98.45377175	92
98.47048302	115
98.48719429	101
98.50390556	89
98.52061683	92
98.5373281	96
98.55403937	124
98.57075064	109
98.58746191	110
98.60417318	98
98.62088444	109
98.63759571	102
98.65430698	97
98.67101825	95
98.68772952	100
98.70444079	93
98.72115206	88
98.73786333	129
98.7545746	108
98.77128587	111
98.78799713	103
98.8047084	107
98.82141967	96
98.83813094	112
98.85484221	95
98.87155348	110
98.88826475	106
98.90497602	109
98.92168729	127
98.93839855	87
98.95510982	104
98.97182109	107
98.98853236	112
99.00524363	98
99.0219549	111
99.03866617	114
99.05537744	120
99.07208871	106
99.08879998	98
99.10551124	115
99.12222251	98
99.13893378	78
99.15564505	97
99.17235632	111
99.18906759	81
99.20577886	96
99.22249013	109
99.2392014	104
99.25591267	88
99.27262393	111
99.2893352	100
99.30604647	78
99.32275774	114
99.33946901	83
99.35618028	98
99.37289155	112
99.38960282	98
99.40631409	103
99.42302536	93
99.43973662	101
99.45644789	104
99.47315916	87
99.48987043	110
99.5065817	101
99.52329297	103
99.54000424	98
99.55671551	96
99.57342678	91
99.59013805	86
99.60684931	108
99.62356058	96
99.64027185	108
99.65698312	100
99.67369439	104
99.69040566	89
99.70711693	111
99.7238282	97
99.74053947	108
99.75725073	100
99.773962	94
99.79067327	92
99.80738454	83
99.82409581	103
99.84080708	88
99.85751835	115
99.87422962	89
99.89094089	107
99.90765216	104
99.92436342	91
99.94107469	112
99.95778596	102
99.97449723	110
99.9912085	97