5.00435563	515
5.021066899	505
5.037778168	520
5.054489437	477
5.071200706	492
5.087911975	481
5.104623244	507
5.121334513	482
5.138045782	516
5.154757051	429
5.17146832	490
5.188179589	449
5.204890858	488
5.221602127	462
5.238313396	425
5.255024665	507
5.271735934	455
5.288447203	455
5.305158472	448
5.321869741	457
5.33858101	459
5.355292279	481
5.372003548	455
5.388714816	440
5.405426085	413
5.422137354	460
5.438848623	489
5.455559892	448
5.472271161	473
5.48898243	429
5.505693699	463
5.522404968	435
5.539116237	451
5.555827506	432
5.572538775	414
5.589250044	421
5.605961313	419
5.622672582	381
5.639383851	436
5.65609512	426
5.672806389	442
5.689517658	412
5.706228927	433
5.722940196	429
5.739651465	420
5.756362734	405
5.773074003	441
5.789785272	407
5.806496541	388
5.82320781	395
5.839919079	424
5.856630348	428
5.873341617	370
5.890052886	404
5.906764155	394
5.923475424	430
5.940186693	439
5.956897962	370
5.973609231	413
5.9903205	396
6.007031769	383
6.023743038	395
6.040454307	389
6.057165576	398
6.073876845	394
6.090588114	418
6.107299383	372
6.124010652	404
6.14072192	420
6.157433189	421
6.174144458	406
6.190855727	395
6.207566996	388
6.224278265	380
6.240989534	357
6.257700803	353
6.274412072	430
6.291123341	359
6.30783461	342
6.324545879	399
6.341257148	434
6.357968417	344
6.374679686	405
6.391390955	373
6.408102224	371
6.424813493	383
6.441524762	379
6.458236031	362
6.4749473	361
6.491658569	380
6.508369838	388
6.525081107	428
6.541792376	361
6.558503645	374
6.575214914	379
6.591926183	352
6.608637452	375
6.625348721	343
6.64205999	358
6.658771259	346
6.675482528	405
6.692193797	358
6.708905066	344
6.725616335	368
6.742327604	335
6.759038873	354
6.775750142	350
6.792461411	340
6.80917268	340
6.825883949	361
6.842595218	352
6.859306487	346
6.876017756	343
6.892729024	352
6.909440293	342
6.926151562	322
6.942862831	352
6.9595741	344
6.976285369	327
6.992996638	370
7.009707907	333
7.026419176	344
7.043130445	358
7.059841714	334
7.076552983	349
7.093264252	327
7.109975521	312
7.12668679	339
7.143398059	345
7.160109328	337
7.176820597	349
7.193531866	309
7.210243135	326
7.226954404	361
7.243665673	365
7.260376942	338
7.277088211	328
7.29379948	337
7.310510749	327
7.327222018	297
7.343933287	336
7.360644556	297
7.377355825	309
7.394067094	343
7.410778363	345
7.427489632	304
7.444200901	301
7.46091217	313
7.477623439	299
7.494334708	330
7.511045977	299
7.527757246	331
7.544468515	293
7.561179784	313
7.577891053	344
7.594602322	282
7.611313591	303
7.62802486	305
7.644736128	322
7.661447397	295
7.678158666	293
7.694869935	285
7.711581204	292
7.728292473	297
7.745003742	320
7.761715011	295
7.77842628	315
7.795137549	330
7.811848818	289
7.828560087	310
7.845271356	308
7.861982625	340
7.878693894	297
7.895405163	326
7.912116432	298
7.928827701	295
7.94553897	290
7.962250239	283
7.978961508	262
7.995672777	314
8.012384046	284
8.029095315	280
8.045806584	320
8.062517853	294
8.079229122	303
8.095940391	263
8.11265166	283
8.129362929	297
8.146074198	286
8.162785467	288
8.179496736	307
8.196208005	264
8.212919274	277
8.229630543	264
8.246341812	286
8.263053081	261
8.27976435	256
8.296475619	283
8.313186888	280
8.329898157	322
8.346609426	286
8.363320695	294
8.380031964	306
8.396743233	274
8.413454501	267
8.43016577	316
8.446877039	290
8.463588308	266
8.480299577	256
8.497010846	293
8.513722115	264
8.530433384	285
8.547144653	311
8.563855922	291
8.580567191	288
8.59727846	273
8.613989729	286
8.630700998	256
8.647412267	261
8.664123536	296
8.680834805	307
8.697546074	269
8.714257343	241
8.730968612	304
8.747679881	288
8.76439115	283
8.781102419	260
8.797813688	238
8.814524957	265
8.831236226	267
8.847947495	241
8.864658764	278
8.881370033	275
8.898081302	267
8.914792571	271
8.93150384	209
8.948215109	239
8.964926378	303
8.981637647	240
8.998348916	260
9.015060185	279
9.031771454	253
9.048482723	265
9.065193992	289
9.081905261	268
9.09861653	240
9.115327799	270
9.132039068	241
9.148750337	243
9.165461605	249
9.182172874	267
9.198884143	259
9.215595412	268
9.232306681	254
9.24901795	217
9.265729219	212
9.282440488	247
9.299151757	264
9.315863026	251
9.332574295	255
9.349285564	252
9.365996833	213
9.382708102	248
9.399419371	251
9.41613064	241
9.432841909	249
9.449553178	208
9.466264447	214
9.482975716	245
9.499686985	252
9.516398254	232
9.533109523	225
9.549820792	235
9.566532061	241
9.58324333	223
9.599954599	238
9.616665868	239
9.633377137	244
9.650088406	213
9.666799675	227
9.683510944	239
9.700222213	246
9.716933482	233
9.733644751	237
9.75035602	207
9.767067289	262
9.783778558	218
9.800489827	220
9.817201096	216
9.833912365	274
9.850623634	259
9.867334903	216
9.884046172	234
9.900757441	239
9.917468709	245
9.934179978	233
9.950891247	235
9.967602516	233
9.984313785	259
10.00102505	209
10.01773632	212
10.03444759	200
10.05115886	209
10.06787013	247
10.0845814	233
10.10129267	195
10.11800394	214
10.13471521	237
10.15142648	230
10.16813774	233
10.18484901	230
10.20156028	230
10.21827155	206
10.23498282	225
10.25169409	222
10.26840536	231
10.28511663	217
10.3018279	215
10.31853917	219
10.33525043	224
10.3519617	230
10.36867297	205
10.38538424	187
10.40209551	241
10.41880678	204
10.43551805	233
10.45222932	202
10.46894059	227
10.48565186	213
10.50236312	189
10.51907439	231
10.53578566	214
10.55249693	203
10.5692082	201
10.58591947	217
10.60263074	178
10.61934201	214
10.63605328	235
10.65276455	219
10.66947581	238
10.68618708	195
10.70289835	219
10.71960962	207
10.73632089	208
10.75303216	221
10.76974343	217
10.7864547	239
10.80316597	193
10.81987723	215
10.8365885	217
10.85329977	202
10.87001104	221
10.88672231	209
10.90343358	216
10.92014485	189
10.93685612	169
10.95356739	213
10.97027866	198
10.98698992	199
11.00370119	207
11.02041246	198
11.03712373	168
11.053835	193
11.07054627	180
11.08725754	195
11.10396881	203
11.12068008	200
11.13739135	190
11.15410261	189
11.17081388	207
11.18752515	189
11.20423642	184
11.22094769	215
11.23765896	190
11.25437023	193
11.2710815	225
11.28779277	198
11.30450404	195
11.3212153	170
11.33792657	190
11.35463784	179
11.37134911	198
11.38806038	197
11.40477165	203
11.42148292	203
11.43819419	205
11.45490546	187
11.47161672	203
11.48832799	212
11.50503926	207
11.52175053	184
11.5384618	208
11.55517307	170
11.57188434	197
11.58859561	246
11.60530688	176
11.62201815	228
11.63872941	180
11.65544068	183
11.67215195	200
11.68886322	178
11.70557449	182
11.72228576	212
11.73899703	179
11.7557083	198
11.77241957	208
11.78913084	207
11.8058421	198
11.82255337	214
11.83926464	169
11.85597591	187
11.87268718	191
11.88939845	170
11.90610972	204
11.92282099	186
11.93953226	190
11.95624353	191
11.97295479	209
11.98966606	180
12.00637733	186
12.0230886	182
12.03979987	199
12.05651114	201
12.07322241	173
12.08993368	214
12.10664495	192
12.12335622	179
12.14006748	182
12.15677875	193
12.17349002	234
12.19020129	176
12.20691256	194
12.22362383	200
12.2403351	204
12.25704637	187
12.27375764	208
12.2904689	195
12.30718017	200
12.32389144	193
12.34060271	185
12.35731398	192
12.37402525	187
12.39073652	186
12.40744779	229
12.42415906	190
12.44087033	205
12.45758159	189
12.47429286	194
12.49100413	205
12.5077154	171
12.52442667	205
12.54113794	199
12.55784921	193
12.57456048	200
12.59127175	206
12.60798302	178
12.62469428	207
12.64140555	234
12.65811682	176
12.67482809	195
12.69153936	202
12.70825063	194
12.7249619	187
12.74167317	204
12.75838444	201
12.77509571	220
12.79180697	177
12.80851824	201
12.82522951	193
12.84194078	189
12.85865205	213
12.87536332	199
12.89207459	190
12.90878586	213
12.92549713	180
12.94220839	199
12.95891966	214
12.97563093	195
12.9923422	199
13.00905347	228
13.02576474	241
13.04247601	220
13.05918728	217
13.07589855	213
13.09260982	204
13.10932108	219
13.12603235	184
13.14274362	213
13.15945489	207
13.17616616	201
13.19287743	203
13.2095887	200
13.22629997	241
13.24301124	220
13.25972251	199
13.27643377	225
13.29314504	220
13.30985631	195
13.32656758	241
13.34327885	198
13.35999012	227
13.37670139	216
13.39341266	250
13.41012393	218
13.4268352	218
13.44354646	213
13.46025773	215
13.476969	204
13.49368027	230
13.51039154	229
13.52710281	241
13.54381408	233
13.56052535	205
13.57723662	223
13.59394789	208
13.61065915	210
13.62737042	207
13.64408169	189
13.66079296	248
13.67750423	207
13.6942155	195
13.71092677	204
13.72763804	203
13.74434931	223
13.76106057	189
13.77777184	186
13.79448311	218
13.81119438	199
13.82790565	163
13.84461692	197
13.86132819	185
13.87803946	182
13.89475073	173
13.911462	192
13.92817326	218
13.94488453	182
13.9615958	170
13.97830707	205
13.99501834	208
14.01172961	176
14.02844088	192
14.04515215	202
14.06186342	209
14.07857469	199
14.09528595	185
14.11199722	199
14.12870849	171
14.14541976	190
14.16213103	174
14.1788423	167
14.19555357	189
14.21226484	172
14.22897611	180
14.24568738	187
14.26239864	163
14.27910991	173
14.29582118	172
14.31253245	168
14.32924372	157
14.34595499	191
14.36266626	175
14.37937753	155
14.3960888	199
14.41280007	180
14.42951133	161
14.4462226	182
14.46293387	159
14.47964514	189
14.49635641	178
14.51306768	179
14.52977895	177
14.54649022	172
14.56320149	149
14.57991275	147
14.59662402	150
14.61333529	177
14.63004656	154
14.64675783	170
14.6634691	156
14.68018037	159
14.69689164	172
14.71360291	172
14.73031418	157
14.74702544	173
14.76373671	150
14.78044798	161
14.79715925	184
14.81387052	172
14.83058179	144
14.84729306	167
14.86400433	139
14.8807156	147
14.89742687	146
14.91413813	191
14.9308494	164
14.94756067	149
14.96427194	161
14.98098321	179
14.99769448	158
15.01440575	169
15.03111702	147
15.04782829	160
15.06453956	154
15.08125082	149
15.09796209	174
15.11467336	126
15.13138463	146
15.1480959	162
15.16480717	146
15.18151844	152
15.19822971	182
15.21494098	137
15.23165224	153
15.24836351	169
15.26507478	188
15.28178605	154
15.29849732	154
15.31520859	176
15.33191986	171
15.34863113	133
15.3653424	131
15.38205367	148
15.39876493	164
15.4154762	163
15.43218747	153
15.44889874	157
15.46561001	144
15.48232128	167
15.49903255	147
15.51574382	147
15.53245509	167
15.54916636	134
15.56587762	174
15.58258889	156
15.59930016	141
15.61601143	170
15.6327227	163
15.64943397	156
15.66614524	160
15.68285651	165
15.69956778	132
15.71627905	163
15.73299031	168
15.74970158	148
15.76641285	131
15.78312412	139
15.79983539	165
15.81654666	161
15.83325793	135
15.8499692	148
15.86668047	169
15.88339174	158
15.900103	137
15.91681427	150
15.93352554	147
15.95023681	148
15.96694808	141
15.98365935	144
16.00037062	126
16.01708189	180
16.03379316	162
16.05050442	135
16.06721569	160
16.08392696	122
16.10063823	150
16.1173495	131
16.13406077	125
16.15077204	139
16.16748331	146
16.18419458	140
16.20090585	163
16.21761711	139
16.23432838	164
16.25103965	168
16.26775092	144
16.28446219	129
16.30117346	141
16.31788473	147
16.334596	149
16.35130727	154
16.36801854	167
16.3847298	169
16.40144107	144
16.41815234	171
16.43486361	150
16.45157488	153
16.46828615	158
16.48499742	129
16.50170869	146
16.51841996	139
16.53513123	139
16.55184249	154
16.56855376	142
16.58526503	148
16.6019763	143
16.61868757	132
16.63539884	155
16.65211011	140
16.66882138	154
16.68553265	145
16.70224391	141
16.71895518	118
16.73566645	159
16.75237772	143
16.76908899	129
16.78580026	156
16.80251153	153
16.8192228	126
16.83593407	120
16.85264534	138
16.8693566	149
16.88606787	137
16.90277914	154
16.91949041	155
16.93620168	182
16.95291295	152
16.96962422	146
16.98633549	137
17.00304676	128
17.01975803	141
17.03646929	124
17.05318056	135
17.06989183	125
17.0866031	150
17.10331437	155
17.12002564	137
17.13673691	141
17.15344818	167
17.17015945	164
17.18687072	135
17.20358198	144
17.22029325	150
17.23700452	139
17.25371579	143
17.27042706	129
17.28713833	135
17.3038496	135
17.32056087	116
17.33727214	140
17.35398341	137
17.37069467	129
17.38740594	142
17.40411721	148
17.42082848	129
17.43753975	153
17.45425102	152
17.47096229	125
17.48767356	123
17.50438483	149
17.52109609	128
17.53780736	164
17.55451863	139
17.5712299	160
17.58794117	135
17.60465244	134
17.62136371	132
17.63807498	153
17.65478625	130
17.67149752	154
17.68820878	147
17.70492005	157
17.72163132	155
17.73834259	116
17.75505386	120
17.77176513	132
17.7884764	156
17.80518767	155
17.82189894	138
17.83861021	138
17.85532147	131
17.87203274	132
17.88874401	140
17.90545528	134
17.92216655	142
17.93887782	141
17.95558909	134
17.97230036	133
17.98901163	144
18.0057229	134
18.02243416	150
18.03914543	141
18.0558567	144
18.07256797	142
18.08927924	143
18.10599051	130
18.12270178	143
18.13941305	154
18.15612432	130
18.17283559	148
18.18954685	110
18.20625812	154
18.22296939	139
18.23968066	125
18.25639193	141
18.2731032	126
18.28981447	139
18.30652574	139
18.32323701	142
18.33994827	147
18.35665954	144
18.37337081	130
18.39008208	141
18.40679335	145
18.42350462	127
18.44021589	149
18.45692716	127
18.47363843	149
18.4903497	132
18.50706096	129
18.52377223	129
18.5404835	124
18.55719477	133
18.57390604	127
18.59061731	126
18.60732858	130
18.62403985	146
18.64075112	132
18.65746239	132
18.67417365	137
18.69088492	144
18.70759619	154
18.72430746	133
18.74101873	148
18.75773	110
18.77444127	119
18.79115254	144
18.80786381	118
18.82457508	126
18.84128634	140
18.85799761	139
18.87470888	113
18.89142015	156
18.90813142	120
18.92484269	99
18.94155396	124
18.95826523	138
18.9749765	133
18.99168776	144
19.00839903	127
19.0251103	143
19.04182157	171
19.05853284	157
19.07524411	120
19.09195538	141
19.10866665	114
19.12537792	132
19.14208919	111
19.15880045	119
19.17551172	127
19.19222299	143
19.20893426	114
19.22564553	150
19.2423568	108
19.25906807	137
19.27577934	126
19.29249061	114
19.30920188	139
19.32591314	146
19.34262441	140
19.35933568	132
19.37604695	123
19.39275822	103
19.40946949	122
19.42618076	131
19.44289203	160
19.4596033	140
19.47631457	142
19.49302583	154
19.5097371	122
19.52644837	149
19.54315964	128
19.55987091	138
19.57658218	124
19.59329345	125
19.61000472	126
19.62671599	117
19.64342726	123
19.66013852	159
19.67684979	131
19.69356106	146
19.71027233	144
19.7269836	132
19.74369487	148
19.76040614	131
19.77711741	128
19.79382868	157
19.81053994	110
19.82725121	142
19.84396248	115
19.86067375	138
19.87738502	133
19.89409629	127
19.91080756	127
19.92751883	110
19.9442301	125
19.96094137	116
19.97765263	154
19.9943639	135
20.01107517	126
20.02778644	122
20.04449771	133
20.06120898	135
20.07792025	137
20.09463152	139
20.11134279	113
20.12805406	125
20.14476532	125
20.16147659	130
20.17818786	130
20.19489913	155
20.2116104	130
20.22832167	113
20.24503294	127
20.26174421	125
20.27845548	137
20.29516675	117
20.31187801	143
20.32858928	124
20.34530055	149
20.36201182	135
20.37872309	128
20.39543436	142
20.41214563	163
20.4288569	125
20.44556817	124
20.46227943	113
20.4789907	111
20.49570197	124
20.51241324	138
20.52912451	116
20.54583578	135
20.56254705	132
20.57925832	125
20.59596959	137
20.61268086	127
20.62939212	140
20.64610339	141
20.66281466	98
20.67952593	110
20.6962372	135
20.71294847	133
20.72965974	133
20.74637101	133
20.76308228	120
20.77979355	111
20.79650481	119
20.81321608	142
20.82992735	129
20.84663862	137
20.86334989	131
20.88006116	133
20.89677243	123
20.9134837	133
20.93019497	126
20.94690624	117
20.9636175	119
20.98032877	109
20.99704004	101
21.01375131	109
21.03046258	141
21.04717385	122
21.06388512	124
21.08059639	153
21.09730766	170
21.11401893	128
21.13073019	140
21.14744146	148
21.16415273	120
21.180864	134
21.19757527	112
21.21428654	130
21.23099781	144
21.24770908	127
21.26442035	140
21.28113161	143
21.29784288	132
21.31455415	143
21.33126542	126
21.34797669	118
21.36468796	129
21.38139923	123
21.3981105	111
21.41482177	110
21.43153304	117
21.4482443	133
21.46495557	114
21.48166684	143
21.49837811	129
21.51508938	123
21.53180065	110
21.54851192	137
21.56522319	124
21.58193446	135
21.59864573	139
21.61535699	131
21.63206826	118
21.64877953	118
21.6654908	114
21.68220207	137
21.69891334	120
21.71562461	139
21.73233588	117
21.74904715	99
21.76575842	122
21.78246968	126
21.79918095	153
21.81589222	117
21.83260349	120
21.84931476	123
21.86602603	133
21.8827373	130
21.89944857	110
21.91615984	124
21.93287111	130
21.94958237	139
21.96629364	98
21.98300491	115
21.99971618	141
22.01642745	107
22.03313872	114
22.04984999	120
22.06656126	135
22.08327253	133
22.09998379	117
22.11669506	123
22.13340633	133
22.1501176	120
22.16682887	144
22.18354014	129
22.20025141	150
22.21696268	125
22.23367395	119
22.25038522	127
22.26709648	118
22.28380775	112
22.30051902	139
22.31723029	117
22.33394156	123
22.35065283	131
22.3673641	135
22.38407537	125
22.40078664	140
22.41749791	128
22.43420917	123
22.45092044	134
22.46763171	134
22.48434298	130
22.50105425	124
22.51776552	144
22.53447679	114
22.55118806	129
22.56789933	115
22.5846106	118
22.60132186	126
22.61803313	122
22.6347444	135
22.65145567	126
22.66816694	118
22.68487821	125
22.70158948	129
22.71830075	132
22.73501202	104
22.75172328	145
22.76843455	106
22.78514582	132
22.80185709	109
22.81856836	119
22.83527963	143
22.8519909	131
22.86870217	134
22.88541344	117
22.90212471	126
22.91883597	139
22.93554724	141
22.95225851	114
22.96896978	108
22.98568105	116
23.00239232	119
23.01910359	132
23.03581486	144
23.05252613	137
23.0692374	139
23.08594866	124
23.10265993	144
23.1193712	132
23.13608247	131
23.15279374	130
23.16950501	112
23.18621628	137
23.20292755	115
23.21963882	122
23.23635009	122
23.25306135	115
23.26977262	134
23.28648389	113
23.30319516	138
23.31990643	108
23.3366177	129
23.35332897	106
23.37004024	126
23.38675151	114
23.40346278	127
23.42017404	120
23.43688531	125
23.45359658	138
23.47030785	104
23.48701912	123
23.50373039	114
23.52044166	128
23.53715293	106
23.5538642	132
23.57057546	135
23.58728673	115
23.603998	109
23.62070927	117
23.63742054	129
23.65413181	113
23.67084308	124
23.68755435	127
23.70426562	145
23.72097689	117
23.73768815	115
23.75439942	116
23.77111069	141
23.78782196	126
23.80453323	131
23.8212445	128
23.83795577	135
23.85466704	131
23.87137831	120
23.88808958	130
23.90480084	117
23.92151211	129
23.93822338	126
23.95493465	118
23.97164592	124
23.98835719	133
24.00506846	133
24.02177973	123
24.038491	123
24.05520227	125
24.07191353	127
24.0886248	112
24.10533607	118
24.12204734	118
24.13875861	130
24.15546988	146
24.17218115	124
24.18889242	120
24.20560369	142
24.22231496	131
24.23902622	106
24.25573749	115
24.27244876	119
24.28916003	142
24.3058713	123
24.32258257	153
24.33929384	119
24.35600511	164
24.37271638	117
24.38942764	120
24.40613891	116
24.42285018	144
24.43956145	116
24.45627272	130
24.47298399	135
24.48969526	129
24.50640653	111
24.5231178	140
24.53982907	125
24.55654033	111
24.5732516	117
24.58996287	123
24.60667414	115
24.62338541	134
24.64009668	130
24.65680795	139
24.67351922	115
24.69023049	124
24.70694176	130
24.72365302	110
24.74036429	122
24.75707556	112
24.77378683	117
24.7904981	127
24.80720937	97
24.82392064	142
24.84063191	135
24.85734318	119
24.87405445	142
24.89076571	129
24.90747698	128
24.92418825	127
24.94089952	132
24.95761079	113
24.97432206	137
24.99103333	123
25.0077446	116
25.02445587	133
25.04116713	119
25.0578784	93
25.07458967	134
25.09130094	120
25.10801221	114
25.12472348	133
25.14143475	128
25.15814602	133
25.17485729	128
25.19156856	115
25.20827982	137
25.22499109	109
25.24170236	102
25.25841363	111
25.2751249	123
25.29183617	116
25.30854744	119
25.32525871	141
25.34196998	111
25.35868125	130
25.37539251	120
25.39210378	96
25.40881505	118
25.42552632	112
25.44223759	107
25.45894886	117
25.47566013	108
25.4923714	125
25.50908267	137
25.52579394	110
25.5425052	117
25.55921647	125
25.57592774	111
25.59263901	106
25.60935028	116
25.62606155	114
25.64277282	131
25.65948409	124
25.67619536	134
25.69290663	137
25.70961789	110
25.72632916	115
25.74304043	125
25.7597517	124
25.77646297	118
25.79317424	124
25.80988551	103
25.82659678	108
25.84330805	110
25.86001931	112
25.87673058	132
25.89344185	127
25.91015312	114
25.92686439	119
25.94357566	119
25.96028693	130
25.9769982	123
25.99370947	112
26.01042074	103
26.027132	130
26.04384327	122
26.06055454	111
26.07726581	130
26.09397708	116
26.11068835	155
26.12739962	134
26.14411089	96
26.16082216	146
26.17753343	131
26.19424469	124
26.21095596	101
26.22766723	97
26.2443785	132
26.26108977	111
26.27780104	130
26.29451231	128
26.31122358	128
26.32793485	101
26.34464612	128
26.36135738	107
26.37806865	139
26.39477992	118
26.41149119	123
26.42820246	124
26.44491373	124
26.461625	116
26.47833627	133
26.49504754	127
26.5117588	131
26.52847007	104
26.54518134	112
26.56189261	100
26.57860388	124
26.59531515	130
26.61202642	110
26.62873769	113
26.64544896	116
26.66216023	117
26.67887149	137
26.69558276	113
26.71229403	131
26.7290053	123
26.74571657	119
26.76242784	113
26.77913911	127
26.79585038	103
26.81256165	106
26.82927292	124
26.84598418	116
26.86269545	110
26.87940672	106
26.89611799	109
26.91282926	103
26.92954053	112
26.9462518	117
26.96296307	127
26.97967434	128
26.99638561	147
27.01309687	118
27.02980814	124
27.04651941	109
27.06323068	126
27.07994195	114
27.09665322	108
27.11336449	129
27.13007576	119
27.14678703	142
27.1634983	101
27.18020956	128
27.19692083	120
27.2136321	124
27.23034337	110
27.24705464	143
27.26376591	108
27.28047718	127
27.29718845	117
27.31389972	124
27.33061098	104
27.34732225	109
27.36403352	125
27.38074479	116
27.39745606	120
27.41416733	128
27.4308786	127
27.44758987	118
27.46430114	119
27.48101241	117
27.49772367	111
27.51443494	107
27.53114621	120
27.54785748	141
27.56456875	102
27.58128002	130
27.59799129	120
27.61470256	131
27.63141383	115
27.6481251	138
27.66483636	118
27.68154763	127
27.6982589	125
27.71497017	130
27.73168144	125
27.74839271	116
27.76510398	145
27.78181525	100
27.79852652	117
27.81523779	109
27.83194905	108
27.84866032	126
27.86537159	107
27.88208286	120
27.89879413	125
27.9155054	120
27.93221667	125
27.94892794	115
27.96563921	134
27.98235048	117
27.99906174	113
28.01577301	108
28.03248428	127
28.04919555	111
28.06590682	112
28.08261809	110
28.09932936	104
28.11604063	129
28.1327519	124
28.14946316	97
28.16617443	129
28.1828857	120
28.19959697	119
28.21630824	122
28.23301951	109
28.24973078	116
28.26644205	100
28.28315332	122
28.29986459	138
28.31657585	112
28.33328712	106
28.34999839	123
28.36670966	110
28.38342093	116
28.4001322	133
28.41684347	100
28.43355474	117
28.45026601	126
28.46697728	141
28.48368854	113
28.50039981	118
28.51711108	134
28.53382235	128
28.55053362	135
28.56724489	142
28.58395616	123
28.60066743	118
28.6173787	116
28.63408997	138
28.65080123	119
28.6675125	110
28.68422377	131
28.70093504	139
28.71764631	118
28.73435758	131
28.75106885	144
28.76778012	119
28.78449139	110
28.80120265	123
28.81791392	114
28.83462519	103
28.85133646	115
28.86804773	112
28.884759	117
28.90147027	111
28.91818154	120
28.93489281	107
28.95160408	109
28.96831534	122
28.98502661	103
29.00173788	93
29.01844915	117
29.03516042	116
29.05187169	117
29.06858296	115
29.08529423	128
29.1020055	108
29.11871677	134
29.13542803	101
29.1521393	122
29.16885057	131
29.18556184	118
29.20227311	114
29.21898438	124
29.23569565	118
29.25240692	92
29.26911819	144
29.28582946	118
29.30254072	122
29.31925199	113
29.33596326	127
29.35267453	95
29.3693858	113
29.38609707	117
29.40280834	114
29.41951961	122
29.43623088	127
29.45294215	111
29.46965341	119
29.48636468	110
29.50307595	95
29.51978722	134
29.53649849	116
29.55320976	110
29.56992103	125
29.5866323	104
29.60334357	131
29.62005483	88
29.6367661	99
29.65347737	102
29.67018864	95
29.68689991	113
29.70361118	117
29.72032245	112
29.73703372	116
29.75374499	108
29.77045626	118
29.78716752	111
29.80387879	120
29.82059006	100
29.83730133	111
29.8540126	115
29.87072387	106
29.88743514	101
29.90414641	141
29.92085768	129
29.93756895	141
29.95428021	115
29.97099148	127
29.98770275	110
30.00441402	130
30.02112529	113
30.03783656	114
30.05454783	102
30.0712591	113
30.08797037	108
30.10468164	118
30.1213929	119
30.13810417	122
30.15481544	113
30.17152671	111
30.18823798	119
30.20494925	127
30.22166052	122
30.23837179	132
30.25508306	140
30.27179432	146
30.28850559	119
30.30521686	123
30.32192813	118
30.3386394	106
30.35535067	118
30.37206194	138
30.38877321	109
30.40548448	117
30.42219575	135
30.43890701	118
30.45561828	122
30.47232955	120
30.48904082	130
30.50575209	116
30.52246336	129
30.53917463	103
30.5558859	116
30.57259717	103
30.58930844	112
30.6060197	122
30.62273097	111
30.63944224	106
30.65615351	135
30.67286478	110
30.68957605	128
30.70628732	119
30.72299859	114
30.73970986	106
30.75642113	107
30.77313239	131
30.78984366	139
30.80655493	108
30.8232662	131
30.83997747	122
30.85668874	125
30.87340001	126
30.89011128	141
30.90682255	116
30.92353382	135
30.94024508	122
30.95695635	125
30.97366762	120
30.99037889	141
31.00709016	125
31.02380143	126
31.0405127	127
31.05722397	134
31.07393524	111
31.0906465	137
31.10735777	149
31.12406904	141
31.14078031	126
31.15749158	117
31.17420285	127
31.19091412	111
31.20762539	124
31.22433666	110
31.24104793	145
31.25775919	123
31.27447046	133
31.29118173	116
31.307893	141
31.32460427	117
31.34131554	115
31.35802681	107
31.37473808	138
31.39144935	144
31.40816062	139
31.42487188	118
31.44158315	120
31.45829442	124
31.47500569	109
31.49171696	131
31.50842823	133
31.5251395	124
31.54185077	139
31.55856204	130
31.57527331	116
31.59198457	99
31.60869584	137
31.62540711	108
31.64211838	119
31.65882965	126
31.67554092	124
31.69225219	120
31.70896346	126
31.72567473	114
31.742386	122
31.75909726	139
31.77580853	139
31.7925198	99
31.80923107	129
31.82594234	114
31.84265361	101
31.85936488	131
31.87607615	124
31.89278742	125
31.90949868	131
31.92620995	125
31.94292122	124
31.95963249	127
31.97634376	127
31.99305503	104
32.0097663	118
32.02647757	114
32.04318884	142
32.05990011	134
32.07661137	148
32.09332264	129
32.11003391	132
32.12674518	119
32.14345645	132
32.16016772	119
32.17687899	138
32.19359026	123
32.21030153	129
32.2270128	155
32.24372406	119
32.26043533	127
32.2771466	138
32.29385787	116
32.31056914	128
32.32728041	140
32.34399168	120
32.36070295	133
32.37741422	122
32.39412549	129
32.41083675	108
32.42754802	131
32.44425929	148
32.46097056	142
32.47768183	127
32.4943931	112
32.51110437	120
32.52781564	117
32.54452691	115
32.56123817	125
32.57794944	131
32.59466071	119
32.61137198	145
32.62808325	110
32.64479452	138
32.66150579	126
32.67821706	126
32.69492833	127
32.7116396	117
32.72835086	140
32.74506213	135
32.7617734	110
32.77848467	140
32.79519594	126
32.81190721	126
32.82861848	135
32.84532975	141
32.86204102	128
32.87875229	132
32.89546355	157
32.91217482	131
32.92888609	141
32.94559736	141
32.96230863	153
32.9790199	124
32.99573117	146
33.01244244	127
33.02915371	143
33.04586498	128
33.06257624	134
33.07928751	118
33.09599878	126
33.11271005	125
33.12942132	157
33.14613259	148
33.16284386	154
33.17955513	153
33.1962664	157
33.21297767	157
33.22968893	150
33.2464002	146
33.26311147	149
33.27982274	140
33.29653401	139
33.31324528	145
33.32995655	146
33.34666782	125
33.36337909	120
33.38009035	146
33.39680162	139
33.41351289	138
33.43022416	147
33.44693543	140
33.4636467	142
33.48035797	165
33.49706924	161
33.51378051	145
33.53049178	160
33.54720304	155
33.56391431	145
33.58062558	144
33.59733685	141
33.61404812	142
33.63075939	163
33.64747066	152
33.66418193	153
33.6808932	142
33.69760447	133
33.71431573	141
33.731027	154
33.74773827	139
33.76444954	156
33.78116081	139
33.79787208	144
33.81458335	146
33.83129462	147
33.84800589	154
33.86471716	148
33.88142842	150
33.89813969	143
33.91485096	149
33.93156223	141
33.9482735	148
33.96498477	140
33.98169604	141
33.99840731	134
34.01511858	143
34.03182984	123
34.04854111	111
34.06525238	147
34.08196365	140
34.09867492	145
34.11538619	137
34.13209746	130
34.14880873	133
34.16552	146
34.18223127	146
34.19894253	141
34.2156538	131
34.23236507	135
34.24907634	148
34.26578761	130
34.28249888	129
34.29921015	134
34.31592142	141
34.33263269	133
34.34934396	134
34.36605522	153
34.38276649	108
34.39947776	122
34.41618903	122
34.4329003	133
34.44961157	140
34.46632284	159
34.48303411	130
34.49974538	133
34.51645665	129
34.53316791	132
34.54987918	140
34.56659045	138
34.58330172	130
34.60001299	149
34.61672426	169
34.63343553	139
34.6501468	127
34.66685807	138
34.68356934	159
34.7002806	139
34.71699187	144
34.73370314	144
34.75041441	161
34.76712568	182
34.78383695	161
34.80054822	141
34.81725949	142
34.83397076	149
34.85068202	138
34.86739329	156
34.88410456	159
34.90081583	148
34.9175271	148
34.93423837	167
34.95094964	161
34.96766091	143
34.98437218	145
35.00108345	158
35.01779471	175
35.03450598	135
35.05121725	148
35.06792852	145
35.08463979	135
35.10135106	138
35.11806233	150
35.1347736	171
35.15148487	147
35.16819614	158
35.1849074	162
35.20161867	176
35.21832994	193
35.23504121	197
35.25175248	161
35.26846375	183
35.28517502	147
35.30188629	161
35.31859756	159
35.33530883	167
35.35202009	140
35.36873136	145
35.38544263	143
35.4021539	141
35.41886517	129
35.43557644	155
35.45228771	142
35.46899898	156
35.48571025	146
35.50242152	141
35.51913278	153
35.53584405	159
35.55255532	158
35.56926659	144
35.58597786	154
35.60268913	134
35.6194004	143
35.63611167	152
35.65282294	158
35.6695342	159
35.68624547	177
35.70295674	132
35.71966801	138
35.73637928	149
35.75309055	152
35.76980182	140
35.78651309	167
35.80322436	167
35.81993563	162
35.83664689	157
35.85335816	163
35.87006943	153
35.8867807	141
35.90349197	147
35.92020324	159
35.93691451	164
35.95362578	154
35.97033705	156
35.98704832	158
36.00375958	139
36.02047085	163
36.03718212	158
36.05389339	161
36.07060466	165
36.08731593	174
36.1040272	132
36.12073847	141
36.13744974	144
36.15416101	154
36.17087227	154
36.18758354	162
36.20429481	157
36.22100608	168
36.23771735	172
36.25442862	167
36.27113989	188
36.28785116	175
36.30456243	170
36.32127369	185
36.33798496	161
36.35469623	169
36.3714075	189
36.38811877	185
36.40483004	179
36.42154131	182
36.43825258	207
36.45496385	221
36.47167512	251
36.48838638	243
36.50509765	308
36.52180892	277
36.53852019	331
36.55523146	379
36.57194273	395
36.588654	392
36.60536527	496
36.62207654	551
36.63878781	629
36.65549907	770
36.67221034	977
36.68892161	1605
36.70563288	2493
36.72234415	3814
36.73905542	5496
36.75576669	6925
36.77247796	7708
36.78918923	7492
36.8059005	6120
36.82261176	5005
36.83932303	4478
36.8560343	4419
36.87274557	4024
36.88945684	3237
36.90616811	2092
36.92287938	1232
36.93959065	818
36.95630192	594
36.97301319	407
36.98972445	376
37.00643572	285
37.02314699	275
37.03985826	277
37.05656953	204
37.0732808	225
37.08999207	202
37.10670334	215
37.12341461	198
37.14012587	186
37.15683714	186
37.17354841	184
37.19025968	185
37.20697095	170
37.22368222	192
37.24039349	162
37.25710476	186
37.27381603	164
37.2905273	175
37.30723856	144
37.32394983	164
37.3406611	164
37.35737237	153
37.37408364	146
37.39079491	163
37.40750618	134
37.42421745	149
37.44092872	150
37.45763999	133
37.47435125	156
37.49106252	153
37.50777379	141
37.52448506	172
37.54119633	137
37.5579076	176
37.57461887	165
37.59133014	135
37.60804141	131
37.62475268	128
37.64146394	152
37.65817521	134
37.67488648	153
37.69159775	153
37.70830902	137
37.72502029	159
37.74173156	149
37.75844283	147
37.7751541	127
37.79186537	130
37.80857663	133
37.8252879	169
37.84199917	144
37.85871044	153
37.87542171	130
37.89213298	138
37.90884425	137
37.92555552	139
37.94226679	147
37.95897805	122
37.97568932	134
37.99240059	142
38.00911186	158
38.02582313	128
38.0425344	119
38.05924567	139
38.07595694	131
38.09266821	131
38.10937948	139
38.12609074	148
38.14280201	148
38.15951328	139
38.17622455	129
38.19293582	131
38.20964709	138
38.22635836	126
38.24306963	130
38.2597809	117
38.27649217	140
38.29320343	131
38.3099147	143
38.32662597	130
38.34333724	154
38.36004851	120
38.37675978	138
38.39347105	134
38.41018232	134
38.42689359	109
38.44360486	123
38.46031612	154
38.47702739	148
38.49373866	101
38.51044993	128
38.5271612	126
38.54387247	149
38.56058374	125
38.57729501	120
38.59400628	122
38.61071754	140
38.62742881	115
38.64414008	122
38.66085135	162
38.67756262	123
38.69427389	126
38.71098516	127
38.72769643	142
38.7444077	123
38.76111897	137
38.77783023	135
38.7945415	115
38.81125277	131
38.82796404	120
38.84467531	123
38.86138658	140
38.87809785	148
38.89480912	99
38.91152039	142
38.92823166	119
38.94494292	116
38.96165419	129
38.97836546	112
38.99507673	132
39.011788	125
39.02849927	144
39.04521054	132
39.06192181	153
39.07863308	116
39.09534435	133
39.11205561	112
39.12876688	146
39.14547815	138
39.16218942	132
39.17890069	115
39.19561196	134
39.21232323	97
39.2290345	129
39.24574577	146
39.26245704	139
39.2791683	134
39.29587957	138
39.31259084	115
39.32930211	155
39.34601338	175
39.36272465	148
39.37943592	167
39.39614719	205
39.41285846	215
39.42956972	284
39.44628099	304
39.46299226	338
39.47970353	330
39.4964148	288
39.51312607	255
39.52983734	225
39.54654861	228
39.56325988	218
39.57997115	210
39.59668241	188
39.61339368	178
39.63010495	142
39.64681622	134
39.66352749	122
39.68023876	118
39.69695003	112
39.7136613	145
39.73037257	142
39.74708384	128
39.7637951	125
39.78050637	127
39.79721764	130
39.81392891	118
39.83064018	108
39.84735145	130
39.86406272	129
39.88077399	112
39.89748526	135
39.91419653	128
39.93090779	117
39.94761906	104
39.96433033	100
39.9810416	115
39.99775287	112
40.01446414	115
40.03117541	132
40.04788668	135
40.06459795	108
40.08130921	119
40.09802048	147
40.11473175	115
40.13144302	131
40.14815429	123
40.16486556	129
40.18157683	148
40.1982881	120
40.21499937	123
40.23171064	113
40.2484219	116
40.26513317	130
40.28184444	123
40.29855571	119
40.31526698	119
40.33197825	124
40.34868952	108
40.36540079	140
40.38211206	116
40.39882333	127
40.41553459	120
40.43224586	133
40.44895713	113
40.4656684	114
40.48237967	119
40.49909094	103
40.51580221	127
40.53251348	127
40.54922475	123
40.56593602	131
40.58264728	135
40.59935855	110
40.61606982	122
40.63278109	130
40.64949236	118
40.66620363	116
40.6829149	120
40.69962617	128
40.71633744	111
40.73304871	128
40.74975997	109
40.76647124	128
40.78318251	109
40.79989378	130
40.81660505	119
40.83331632	134
40.85002759	122
40.86673886	127
40.88345013	117
40.90016139	107
40.91687266	109
40.93358393	119
40.9502952	111
40.96700647	123
40.98371774	118
41.00042901	99
41.01714028	118
41.03385155	112
41.05056282	116
41.06727408	119
41.08398535	124
41.10069662	135
41.11740789	95
41.13411916	117
41.15083043	103
41.1675417	113
41.18425297	130
41.20096424	125
41.21767551	116
41.23438677	114
41.25109804	134
41.26780931	115
41.28452058	103
41.30123185	127
41.31794312	138
41.33465439	133
41.35136566	134
41.36807693	120
41.3847882	108
41.40149946	115
41.41821073	120
41.434922	115
41.45163327	120
41.46834454	104
41.48505581	119
41.50176708	123
41.51847835	132
41.53518962	135
41.55190089	122
41.56861215	112
41.58532342	113
41.60203469	138
41.61874596	143
41.63545723	127
41.6521685	122
41.66887977	133
41.68559104	123
41.70230231	130
41.71901357	132
41.73572484	131
41.75243611	144
41.76914738	122
41.78585865	110
41.80256992	138
41.81928119	140
41.83599246	139
41.85270373	120
41.869415	138
41.88612626	124
41.90283753	122
41.9195488	127
41.93626007	144
41.95297134	89
41.96968261	133
41.98639388	125
42.00310515	129
42.01981642	130
42.03652769	122
42.05323895	137
42.06995022	118
42.08666149	114
42.10337276	113
42.12008403	142
42.1367953	140
42.15350657	146
42.17021784	137
42.18692911	117
42.20364038	111
42.22035164	134
42.23706291	110
42.25377418	123
42.27048545	146
42.28719672	117
42.30390799	125
42.32061926	128
42.33733053	120
42.3540418	128
42.37075306	123
42.38746433	119
42.4041756	127
42.42088687	146
42.43759814	140
42.45430941	142
42.47102068	146
42.48773195	119
42.50444322	120
42.52115449	115
42.53786575	134
42.55457702	135
42.57128829	118
42.58799956	133
42.60471083	119
42.6214221	124
42.63813337	135
42.65484464	108
42.67155591	132
42.68826718	106
42.70497844	132
42.72168971	137
42.73840098	145
42.75511225	110
42.77182352	137
42.78853479	139
42.80524606	112
42.82195733	132
42.8386686	143
42.85537987	116
42.87209113	142
42.8888024	134
42.90551367	145
42.92222494	139
42.93893621	128
42.95564748	140
42.97235875	150
42.98907002	132
43.00578129	154
43.02249256	129
43.03920382	146
43.05591509	128
43.07262636	150
43.08933763	143
43.1060489	135
43.12276017	117
43.13947144	123
43.15618271	145
43.17289398	131
43.18960524	115
43.20631651	139
43.22302778	125
43.23973905	127
43.25645032	153
43.27316159	126
43.28987286	157
43.30658413	146
43.3232954	135
43.34000667	142
43.35671793	163
43.3734292	172
43.39014047	168
43.40685174	184
43.42356301	180
43.44027428	237
43.45698555	221
43.47369682	223
43.49040809	256
43.50711936	256
43.52383062	268
43.54054189	281
43.55725316	273
43.57396443	343
43.5906757	405
43.60738697	556
43.62409824	902
43.64080951	1292
43.65752078	1903
43.67423205	2391
43.69094331	2763
43.70765458	2308
43.72436585	1792
43.74107712	1269
43.75778839	1231
43.77449966	1379
43.79121093	1448
43.8079222	1424
43.82463347	1234
43.84134473	915
43.858056	628
43.87476727	460
43.89147854	420
43.90818981	407
43.92490108	365
43.94161235	328
43.95832362	397
43.97503489	389
43.99174616	425
44.00845742	367
44.02516869	406
44.04187996	389
44.05859123	410
44.0753025	414
44.09201377	401
44.10872504	373
44.12543631	394
44.14214758	375
44.15885885	398
44.17557011	355
44.19228138	354
44.20899265	339
44.22570392	300
44.24241519	331
44.25912646	330
44.27583773	322
44.292549	307
44.30926027	298
44.32597154	269
44.3426828	255
44.35939407	237
44.37610534	263
44.39281661	243
44.40952788	197
44.42623915	219
44.44295042	240
44.45966169	217
44.47637296	209
44.49308423	194
44.50979549	223
44.52650676	220
44.54321803	198
44.5599293	205
44.57664057	205
44.59335184	191
44.61006311	229
44.62677438	217
44.64348565	250
44.66019691	239
44.67690818	238
44.69361945	237
44.71033072	255
44.72704199	267
44.74375326	293
44.76046453	263
44.7771758	284
44.79388707	277
44.81059834	303
44.8273096	357
44.84402087	364
44.86073214	336
44.87744341	389
44.89415468	344
44.91086595	365
44.92757722	369
44.94428849	377
44.96099976	365
44.97771103	367
44.99442229	395
45.01113356	360
45.02784483	349
45.0445561	381
45.06126737	335
45.07797864	330
45.09468991	307
45.11140118	301
45.12811245	327
45.14482372	271
45.16153498	256
45.17824625	255
45.19495752	256
45.21166879	222
45.22838006	206
45.24509133	214
45.2618026	222
45.27851387	174
45.29522514	201
45.31193641	204
45.32864767	164
45.34535894	190
45.36207021	184
45.37878148	183
45.39549275	150
45.41220402	144
45.42891529	159
45.44562656	139
45.46233783	144
45.47904909	153
45.49576036	157
45.51247163	142
45.5291829	156
45.54589417	148
45.56260544	133
45.57931671	124
45.59602798	113
45.61273925	144
45.62945052	130
45.64616178	124
45.66287305	91
45.67958432	115
45.69629559	99
45.71300686	138
45.72971813	129
45.7464294	113
45.76314067	118
45.77985194	115
45.79656321	124
45.81327447	99
45.82998574	123
45.84669701	113
45.86340828	110
45.88011955	114
45.89683082	106
45.91354209	95
45.93025336	119
45.94696463	114
45.9636759	131
45.98038716	122
45.99709843	114
46.0138097	127
46.03052097	125
46.04723224	110
46.06394351	126
46.08065478	115
46.09736605	107
46.11407732	110
46.13078858	102
46.14749985	112
46.16421112	97
46.18092239	96
46.19763366	98
46.21434493	119
46.2310562	99
46.24776747	101
46.26447874	109
46.28119001	103
46.29790127	94
46.31461254	94
46.33132381	101
46.34803508	123
46.36474635	91
46.38145762	106
46.39816889	115
46.41488016	88
46.43159143	98
46.4483027	99
46.46501396	109
46.48172523	104
46.4984365	115
46.51514777	114
46.53185904	102
46.54857031	111
46.56528158	95
46.58199285	115
46.59870412	107
46.61541539	110
46.63212665	94
46.64883792	104
46.66554919	99
46.68226046	116
46.69897173	107
46.715683	123
46.73239427	91
46.74910554	116
46.76581681	102
46.78252808	95
46.79923934	103
46.81595061	93
46.83266188	96
46.84937315	104
46.86608442	117
46.88279569	97
46.89950696	92
46.91621823	94
46.9329295	106
46.94964076	122
46.96635203	104
46.9830633	96
46.99977457	122
47.01648584	94
47.03319711	94
47.04990838	98
47.06661965	110
47.08333092	98
47.10004219	101
47.11675345	99
47.13346472	87
47.15017599	97
47.16688726	110
47.18359853	87
47.2003098	99
47.21702107	129
47.23373234	108
47.25044361	115
47.26715488	91
47.28386614	99
47.30057741	116
47.31728868	85
47.33399995	98
47.35071122	112
47.36742249	123
47.38413376	96
47.40084503	107
47.4175563	95
47.43426757	107
47.45097883	108
47.4676901	79
47.48440137	116
47.50111264	103
47.51782391	112
47.53453518	97
47.55124645	112
47.56795772	127
47.58466899	116
47.60138025	110
47.61809152	103
47.63480279	103
47.65151406	110
47.66822533	101
47.6849366	115
47.70164787	93
47.71835914	98
47.73507041	80
47.75178168	91
47.76849294	114
47.78520421	112
47.80191548	104
47.81862675	103
47.83533802	106
47.85204929	111
47.86876056	103
47.88547183	124
47.9021831	99
47.91889437	125
47.93560563	106
47.9523169	80
47.96902817	93
47.98573944	87
48.00245071	114
48.01916198	98
48.03587325	110
48.05258452	102
48.06929579	114
48.08600706	104
48.10271832	106
48.11942959	98
48.13614086	101
48.15285213	106
48.1695634	87
48.18627467	110
48.20298594	107
48.21969721	101
48.23640848	104
48.25311975	81
48.26983101	98
48.28654228	104
48.30325355	78
48.31996482	107
48.33667609	92
48.35338736	97
48.37009863	93
48.3868099	101
48.40352117	126
48.42023243	95
48.4369437	101
48.45365497	115
48.47036624	123
48.48707751	110
48.50378878	106
48.52050005	116
48.53721132	111
48.55392259	133
48.57063386	98
48.58734512	129
48.60405639	117
48.62076766	100
48.63747893	92
48.6541902	99
48.67090147	109
48.68761274	92
48.70432401	101
48.72103528	109
48.73774655	89
48.75445781	91
48.77116908	86
48.78788035	109
48.80459162	95
48.82130289	93
48.83801416	92
48.85472543	83
48.8714367	111
48.88814797	91
48.90485924	99
48.9215705	109
48.93828177	100
48.95499304	102
48.97170431	100
48.98841558	108
49.00512685	96
49.02183812	98
49.03854939	91
49.05526066	93
49.07197193	107
49.08868319	86
49.10539446	107
49.12210573	115
49.138817	115
49.15552827	86
49.17223954	107
49.18895081	126
49.20566208	106
49.22237335	110
49.23908461	113
49.25579588	89
49.27250715	103
49.28921842	116
49.30592969	107
49.32264096	93
49.33935223	86
49.3560635	123
49.37277477	79
49.38948604	85
49.4061973	98
49.42290857	80
49.43961984	113
49.45633111	95
49.47304238	113
49.48975365	83
49.50646492	114
49.52317619	93
49.53988746	86
49.55659873	112
49.57330999	104
49.59002126	86
49.60673253	113
49.6234438	109
49.64015507	100
49.65686634	117
49.67357761	99
49.69028888	93
49.70700015	91
49.72371142	109
49.74042268	117
49.75713395	84
49.77384522	112
49.79055649	106
49.80726776	128
49.82397903	93
49.8406903	112
49.85740157	103
49.87411284	89
49.8908241	101
49.90753537	87
49.92424664	98
49.94095791	88
49.95766918	107
49.97438045	88
49.99109172	83
50.00780299	100
50.02451426	104
50.04122553	100
50.05793679	101
50.07464806	107
50.09135933	119
50.1080706	113
50.12478187	101
50.14149314	119
50.15820441	89
50.17491568	86
50.19162695	93
50.20833822	109
50.22504948	113
50.24176075	107
50.25847202	101
50.27518329	103
50.29189456	102
50.30860583	110
50.3253171	110
50.34202837	93
50.35873964	108
50.37545091	98
50.39216217	120
50.40887344	120
50.42558471	109
50.44229598	123
50.45900725	95
50.47571852	99
50.49242979	137
50.50914106	131
50.52585233	108
50.5425636	119
50.55927486	129
50.57598613	106
50.5926974	112
50.60940867	114
50.62611994	107
50.64283121	122
50.65954248	147
50.67625375	129
50.69296502	140
50.70967628	124
50.72638755	124
50.74309882	126
50.75981009	120
50.77652136	126
50.79323263	155
50.8099439	140
50.82665517	133
50.84336644	145
50.86007771	139
50.87678897	139
50.89350024	125
50.91021151	157
50.92692278	140
50.94363405	142
50.96034532	146
50.97705659	173
50.99376786	128
51.01047913	146
51.0271904	156
51.04390166	135
51.06061293	157
51.0773242	127
51.09403547	162
51.11074674	126
51.12745801	130
51.14416928	141
51.16088055	135
51.17759182	122
51.19430309	140
51.21101435	132
51.22772562	140
51.24443689	122
51.26114816	135
51.27785943	118
51.2945707	163
51.31128197	142
51.32799324	116
51.34470451	114
51.36141578	106
51.37812704	158
51.39483831	117
51.41154958	149
51.42826085	127
51.44497212	98
51.46168339	107
51.47839466	108
51.49510593	139
51.5118172	111
51.52852846	114
51.54523973	108
51.561951	111
51.57866227	109
51.59537354	109
51.61208481	109
51.62879608	123
51.64550735	94
51.66221862	115
51.67892989	107
51.69564115	94
51.71235242	101
51.72906369	108
51.74577496	101
51.76248623	103
51.7791975	106
51.79590877	119
51.81262004	94
51.82933131	89
51.84604258	115
51.86275384	102
51.87946511	101
51.89617638	91
51.91288765	96
51.92959892	113
51.94631019	112
51.96302146	91
51.97973273	101
51.996444	128
52.01315527	102
52.02986653	95
52.0465778	85
52.06328907	93
52.08000034	96
52.09671161	94
52.11342288	113
52.13013415	98
52.14684542	95
52.16355669	110
52.18026795	93
52.19697922	104
52.21369049	97
52.23040176	110
52.24711303	96
52.2638243	89
52.28053557	89
52.29724684	103
52.31395811	111
52.33066938	106
52.34738064	113
52.36409191	120
52.38080318	101
52.39751445	103
52.41422572	118
52.43093699	91
52.44764826	96
52.46435953	109
52.4810708	95
52.49778207	110
52.51449333	89
52.5312046	89
52.54791587	86
52.56462714	100
52.58133841	116
52.59804968	107
52.61476095	108
52.63147222	88
52.64818349	98
52.66489476	114
52.68160602	92
52.69831729	94
52.71502856	98
52.73173983	91
52.7484511	96
52.76516237	104
52.78187364	79
52.79858491	110
52.81529618	81
52.83200745	84
52.84871871	96
52.86542998	88
52.88214125	89
52.89885252	108
52.91556379	96
52.93227506	89
52.94898633	110
52.9656976	94
52.98240887	91
52.99912013	103
53.0158314	93
53.03254267	101
53.04925394	87
53.06596521	97
53.08267648	97
53.09938775	108
53.11609902	93
53.13281029	106
53.14952156	98
53.16623282	95
53.18294409	98
53.19965536	109
53.21636663	93
53.2330779	82
53.24978917	85
53.26650044	103
53.28321171	95
53.29992298	84
53.31663425	74
53.33334551	96
53.35005678	87
53.36676805	92
53.38347932	101
53.40019059	99
53.41690186	92
53.43361313	83
53.4503244	94
53.46703567	98
53.48374694	108
53.5004582	94
53.51716947	99
53.53388074	92
53.55059201	93
53.56730328	101
53.58401455	96
53.60072582	78
53.61743709	87
53.63414836	80
53.65085962	89
53.66757089	81
53.68428216	88
53.70099343	128
53.7177047	95
53.73441597	94
53.75112724	89
53.76783851	93
53.78454978	93
53.80126105	107
53.81797231	89
53.83468358	72
53.85139485	97
53.86810612	84
53.88481739	96
53.90152866	97
53.91823993	100
53.9349512	85
53.95166247	99
53.96837374	81
53.985085	95
54.00179627	103
54.01850754	94
54.03521881	88
54.05193008	87
54.06864135	89
54.08535262	109
54.10206389	96
54.11877516	103
54.13548643	81
54.15219769	80
54.16890896	94
54.18562023	96
54.2023315	109
54.21904277	104
54.23575404	101
54.25246531	93
54.26917658	88
54.28588785	100
54.30259912	96
54.31931038	94
54.33602165	97
54.35273292	85
54.36944419	115
54.38615546	101
54.40286673	89
54.419578	106
54.43628927	101
54.45300054	92
54.4697118	104
54.48642307	107
54.50313434	127
54.51984561	120
54.53655688	127
54.55326815	135
54.56997942	145
54.58669069	124
54.60340196	157
54.62011323	183
54.63682449	159
54.65353576	172
54.67024703	213
54.6869583	263
54.70366957	375
54.72038084	531
54.73709211	751
54.75380338	1124
54.77051465	1322
54.78722592	1418
54.80393718	1190
54.82064845	889
54.83735972	536
54.85407099	466
54.87078226	436
54.88749353	593
54.9042048	644
54.92091607	749
54.93762734	746
54.95433861	627
54.97104987	443
54.98776114	293
55.00447241	189
55.02118368	167
55.03789495	152
55.05460622	115
55.07131749	111
55.08802876	99
55.10474003	96
55.1214513	107
55.13816256	101
55.15487383	109
55.1715851	119
55.18829637	101
55.20500764	113
55.22171891	110
55.23843018	87
55.25514145	104
55.27185272	99
55.28856398	94
55.30527525	98
55.32198652	100
55.33869779	91
55.35540906	94
55.37212033	107
55.3888316	115
55.40554287	77
55.42225414	80
55.43896541	85
55.45567667	91
55.47238794	113
55.48909921	99
55.50581048	98
55.52252175	100
55.53923302	96
55.55594429	94
55.57265556	77
55.58936683	108
55.6060781	106
55.62278936	106
55.63950063	82
55.6562119	89
55.67292317	94
55.68963444	88
55.70634571	96
55.72305698	92
55.73976825	109
55.75647952	93
55.77319079	86
55.78990205	79
55.80661332	101
55.82332459	93
55.84003586	89
55.85674713	97
55.8734584	91
55.89016967	107
55.90688094	84
55.92359221	98
55.94030347	106
55.95701474	89
55.97372601	81
55.99043728	87
56.00714855	94
56.02385982	79
56.04057109	103
56.05728236	76
56.07399363	88
56.0907049	94
56.10741616	88
56.12412743	92
56.1408387	99
56.15754997	101
56.17426124	100
56.19097251	74
56.20768378	103
56.22439505	98
56.24110632	89
56.25781759	87
56.27452885	102
56.29124012	106
56.30795139	94
56.32466266	76
56.34137393	89
56.3580852	100
56.37479647	100
56.39150774	91
56.40821901	82
56.42493028	92
56.44164154	92
56.45835281	74
56.47506408	84
56.49177535	100
56.50848662	91
56.52519789	102
56.54190916	97
56.55862043	93
56.5753317	103
56.59204297	82
56.60875423	83
56.6254655	88
56.64217677	104
56.65888804	87
56.67559931	95
56.69231058	98
56.70902185	87
56.72573312	92
56.74244439	88
56.75915565	72
56.77586692	93
56.79257819	100
56.80928946	98
56.82600073	68
56.842712	109
56.85942327	108
56.87613454	73
56.89284581	92
56.90955708	109
56.92626834	98
56.94297961	106
56.95969088	89
56.97640215	94
56.99311342	82
57.00982469	111
57.02653596	93
57.04324723	83
57.0599585	103
57.07666977	92
57.09338103	102
57.1100923	80
57.12680357	91
57.14351484	95
57.16022611	94
57.17693738	73
57.19364865	88
57.21035992	94
57.22707119	87
57.24378246	99
57.26049372	82
57.27720499	106
57.29391626	87
57.31062753	88
57.3273388	93
57.34405007	103
57.36076134	79
57.37747261	76
57.39418388	73
57.41089514	92
57.42760641	91
57.44431768	88
57.46102895	96
57.47774022	87
57.49445149	85
57.51116276	81
57.52787403	81
57.5445853	74
57.56129657	87
57.57800783	91
57.5947191	72
57.61143037	84
57.62814164	94
57.64485291	79
57.66156418	100
57.67827545	77
57.69498672	94
57.71169799	73
57.72840926	111
57.74512052	97
57.76183179	87
57.77854306	86
57.79525433	94
57.8119656	104
57.82867687	86
57.84538814	80
57.86209941	86
57.87881068	83
57.89552195	85
57.91223321	85
57.92894448	74
57.94565575	82
57.96236702	87
57.97907829	86
57.99578956	91
58.01250083	88
58.0292121	87
58.04592337	68
58.06263464	96
58.0793459	102
58.09605717	83
58.11276844	89
58.12947971	77
58.14619098	83
58.16290225	73
58.17961352	99
58.19632479	82
58.21303606	110
58.22974732	97
58.24645859	87
58.26316986	86
58.27988113	74
58.2965924	101
58.31330367	96
58.33001494	82
58.34672621	59
58.36343748	99
58.38014875	93
58.39686001	101
58.41357128	87
58.43028255	96
58.44699382	96
58.46370509	89
58.48041636	78
58.49712763	95
58.5138389	81
58.53055017	93
58.54726144	92
58.5639727	87
58.58068397	95
58.59739524	104
58.61410651	85
58.63081778	102
58.64752905	96
58.66424032	95
58.68095159	85
58.69766286	96
58.71437413	92
58.73108539	84
58.74779666	99
58.76450793	102
58.7812192	104
58.79793047	87
58.81464174	98
58.83135301	112
58.84806428	83
58.86477555	89
58.88148682	95
58.89819808	96
58.91490935	82
58.93162062	111
58.94833189	98
58.96504316	74
58.98175443	106
58.9984657	72
59.01517697	70
59.03188824	88
59.0485995	104
59.06531077	113
59.08202204	80
59.09873331	71
59.11544458	89
59.13215585	86
59.14886712	91
59.16557839	71
59.18228966	101
59.19900093	100
59.21571219	79
59.23242346	103
59.24913473	114
59.265846	101
59.28255727	85
59.29926854	95
59.31597981	95
59.33269108	79
59.34940235	103
59.36611362	112
59.38282488	81
59.39953615	81
59.41624742	89
59.43295869	102
59.44966996	102
59.46638123	86
59.4830925	111
59.49980377	94
59.51651504	88
59.53322631	87
59.54993757	116
59.56664884	101
59.58336011	85
59.60007138	95
59.61678265	94
59.63349392	82
59.65020519	91
59.66691646	100
59.68362773	82
59.70033899	85
59.71705026	93
59.73376153	103
59.7504728	103
59.76718407	87
59.78389534	100
59.80060661	92
59.81731788	96
59.83402915	101
59.85074042	111
59.86745168	74
59.88416295	106
59.90087422	93
59.91758549	97
59.93429676	85
59.95100803	84
59.9677193	89
59.98443057	95
60.00114184	98
60.01785311	79
60.03456437	96
60.05127564	79
60.06798691	103
60.08469818	89
60.10140945	78
60.11812072	82
60.13483199	106
60.15154326	86
60.16825453	79
60.1849658	89
60.20167706	83
60.21838833	91
60.2350996	96
60.25181087	93
60.26852214	83
60.28523341	107
60.30194468	89
60.31865595	95
60.33536722	108
60.35207849	101
60.36878975	84
60.38550102	86
60.40221229	96
60.41892356	100
60.43563483	84
60.4523461	96
60.46905737	98
60.48576864	95
60.50247991	81
60.51919117	82
60.53590244	103
60.55261371	88
60.56932498	83
60.58603625	70
60.60274752	81
60.61945879	93
60.63617006	86
60.65288133	72
60.6695926	102
60.68630386	85
60.70301513	80
60.7197264	99
60.73643767	88
60.75314894	111
60.76986021	71
60.78657148	94
60.80328275	101
60.81999402	94
60.83670529	82
60.85341655	84
60.87012782	95
60.88683909	88
60.90355036	82
60.92026163	98
60.9369729	86
60.95368417	83
60.97039544	92
60.98710671	98
61.00381798	81
61.02052924	83
61.03724051	91
61.05395178	86
61.07066305	102
61.08737432	94
61.10408559	109
61.12079686	103
61.13750813	85
61.1542194	97
61.17093066	79
61.18764193	88
61.2043532	94
61.22106447	92
61.23777574	93
61.25448701	89
61.27119828	70
61.28790955	87
61.30462082	82
61.32133209	97
61.33804335	78
61.35475462	73
61.37146589	110
61.38817716	79
61.40488843	92
61.4215997	95
61.43831097	81
61.45502224	92
61.47173351	96
61.48844478	95
61.50515604	93
61.52186731	94
61.53857858	93
61.55528985	106
61.57200112	87
61.58871239	82
61.60542366	81
61.62213493	123
61.6388462	96
61.65555747	82
61.67226873	94
61.68898	100
61.70569127	98
61.72240254	57
61.73911381	88
61.75582508	93
61.77253635	97
61.78924762	81
61.80595889	71
61.82267016	86
61.83938142	82
61.85609269	83
61.87280396	92
61.88951523	76
61.9062265	106
61.92293777	84
61.93964904	81
61.95636031	89
61.97307158	88
61.98978284	78
62.00649411	101
62.02320538	96
62.03991665	82
62.05662792	84
62.07333919	100
62.09005046	97
62.10676173	94
62.123473	94
62.14018427	77
62.15689553	91
62.1736068	88
62.19031807	102
62.20702934	97
62.22374061	97
62.24045188	114
62.25716315	89
62.27387442	104
62.29058569	76
62.30729696	96
62.32400822	96
62.34071949	106
62.35743076	69
62.37414203	87
62.3908533	87
62.40756457	85
62.42427584	85
62.44098711	103
62.45769838	84
62.47440965	97
62.49112091	106
62.50783218	101
62.52454345	93
62.54125472	108
62.55796599	99
62.57467726	79
62.59138853	74
62.6080998	80
62.62481107	82
62.64152234	96
62.6582336	86
62.67494487	71
62.69165614	84
62.70836741	80
62.72507868	85
62.74178995	112
62.75850122	107
62.77521249	92
62.79192376	99
62.80863502	101
62.82534629	78
62.84205756	64
62.85876883	92
62.8754801	89
62.89219137	85
62.90890264	83
62.92561391	92
62.94232518	98
62.95903645	94
62.97574771	100
62.99245898	85
63.00917025	112
63.02588152	96
63.04259279	95
63.05930406	91
63.07601533	81
63.0927266	95
63.10943787	102
63.12614914	92
63.1428604	91
63.15957167	100
63.17628294	110
63.19299421	116
63.20970548	84
63.22641675	99
63.24312802	86
63.25983929	88
63.27655056	85
63.29326183	104
63.30997309	101
63.32668436	86
63.34339563	99
63.3601069	93
63.37681817	92
63.39352944	107
63.41024071	88
63.42695198	101
63.44366325	102
63.46037451	89
63.47708578	94
63.49379705	99
63.51050832	96
63.52721959	94
63.54393086	98
63.56064213	85
63.5773534	94
63.59406467	95
63.61077594	101
63.6274872	87
63.64419847	107
63.66090974	106
63.67762101	94
63.69433228	94
63.71104355	91
63.72775482	85
63.74446609	98
63.76117736	89
63.77788863	103
63.79459989	98
63.81131116	94
63.82802243	110
63.8447337	88
63.86144497	104
63.87815624	81
63.89486751	115
63.91157878	110
63.92829005	87
63.94500132	96
63.96171258	99
63.97842385	116
63.99513512	85
64.01184639	119
64.02855766	114
64.04526893	118
64.0619802	107
64.07869147	102
64.09540274	110
64.11211401	102
64.12882527	111
64.14553654	111
64.16224781	144
64.17895908	104
64.19567035	117
64.21238162	125
64.22909289	103
64.24580416	112
64.26251543	129
64.27922669	120
64.29593796	120
64.31264923	117
64.3293605	126
64.34607177	117
64.36278304	118
64.37949431	133
64.39620558	143
64.41291685	157
64.42962812	126
64.44633938	138
64.46305065	148
64.47976192	125
64.49647319	142
64.51318446	135
64.52989573	149
64.546607	152
64.56331827	152
64.58002954	150
64.59674081	144
64.61345207	146
64.63016334	162
64.64687461	161
64.66358588	177
64.68029715	174
64.69700842	185
64.71371969	191
64.73043096	212
64.74714223	174
64.7638535	162
64.78056476	209
64.79727603	194
64.8139873	199
64.83069857	190
64.84740984	186
64.86412111	222
64.88083238	217
64.89754365	172
64.91425492	219
64.93096619	215
64.94767745	239
64.96438872	230
64.98109999	220
64.99781126	224
65.01452253	203
65.0312338	206
65.04794507	241
65.06465634	204
65.08136761	212
65.09807887	224
65.11479014	232
65.13150141	241
65.14821268	229
65.16492395	232
65.18163522	231
65.19834649	222
65.21505776	205
65.23176903	208
65.2484803	219
65.26519156	233
65.28190283	212
65.2986141	222
65.31532537	233
65.33203664	195
65.34874791	222
65.36545918	208
65.38217045	217
65.39888172	207
65.41559299	182
65.43230425	182
65.44901552	203
65.46572679	208
65.48243806	197
65.49914933	197
65.5158606	200
65.53257187	195
65.54928314	180
65.56599441	202
65.58270568	201
65.59941694	186
65.61612821	179
65.63283948	192
65.64955075	170
65.66626202	154
65.68297329	162
65.69968456	176
65.71639583	176
65.7331071	167
65.74981836	143
65.76652963	143
65.7832409	154
65.79995217	165
65.81666344	169
65.83337471	125
65.85008598	144
65.86679725	172
65.88350852	138
65.90021979	126
65.91693105	158
65.93364232	153
65.95035359	131
65.96706486	157
65.98377613	131
66.0004874	123
66.01719867	119
66.03390994	127
66.05062121	123
66.06733248	116
66.08404374	109
66.10075501	116
66.11746628	114
66.13417755	115
66.15088882	141
66.16760009	119
66.18431136	104
66.20102263	111
66.2177339	104
66.23444517	130
66.25115643	103
66.2678677	95
66.28457897	107
66.30129024	98
66.31800151	100
66.33471278	101
66.35142405	91
66.36813532	108
66.38484659	101
66.40155786	110
66.41826912	113
66.43498039	91
66.45169166	94
66.46840293	109
66.4851142	100
66.50182547	93
66.51853674	108
66.53524801	102
66.55195928	95
66.56867054	99
66.58538181	104
66.60209308	92
66.61880435	100
66.63551562	94
66.65222689	98
66.66893816	96
66.68564943	84
66.7023607	111
66.71907197	81
66.73578323	88
66.7524945	86
66.76920577	95
66.78591704	102
66.80262831	97
66.81933958	107
66.83605085	113
66.85276212	102
66.86947339	89
66.88618466	109
66.90289592	92
66.91960719	96
66.93631846	85
66.95302973	108
66.969741	91
66.98645227	112
67.00316354	108
67.01987481	82
67.03658608	86
67.05329735	92
67.07000861	101
67.08671988	99
67.10343115	85
67.12014242	80
67.13685369	106
67.15356496	99
67.17027623	87
67.1869875	93
67.20369877	97
67.22041003	114
67.2371213	81
67.25383257	98
67.27054384	98
67.28725511	93
67.30396638	100
67.32067765	84
67.33738892	91
67.35410019	85
67.37081146	102
67.38752272	94
67.40423399	88
67.42094526	101
67.43765653	74
67.4543678	104
67.47107907	88
67.48779034	87
67.50450161	87
67.52121288	89
67.53792415	93
67.55463541	92
67.57134668	106
67.58805795	103
67.60476922	104
67.62148049	89
67.63819176	97
67.65490303	73
67.6716143	88
67.68832557	99
67.70503684	78
67.7217481	97
67.73845937	108
67.75517064	94
67.77188191	111
67.78859318	104
67.80530445	99
67.82201572	80
67.83872699	104
67.85543826	83
67.87214953	99
67.88886079	87
67.90557206	89
67.92228333	96
67.9389946	104
67.95570587	78
67.97241714	81
67.98912841	85
68.00583968	94
68.02255095	98
68.03926221	77
68.05597348	91
68.07268475	91
68.08939602	87
68.10610729	84
68.12281856	88
68.13952983	101
68.1562411	95
68.17295237	81
68.18966364	88
68.2063749	84
68.22308617	103
68.23979744	92
68.25650871	91
68.27321998	98
68.28993125	94
68.30664252	86
68.32335379	76
68.34006506	85
68.35677633	94
68.37348759	92
68.39019886	103
68.40691013	101
68.4236214	84
68.44033267	111
68.45704394	99
68.47375521	109
68.49046648	88
68.50717775	84
68.52388902	114
68.54060028	99
68.55731155	87
68.57402282	95
68.59073409	83
68.60744536	128
68.62415663	99
68.6408679	88
68.65757917	103
68.67429044	96
68.69100171	89
68.70771297	106
68.72442424	93
68.74113551	69
68.75784678	101
68.77455805	79
68.79126932	80
68.80798059	79
68.82469186	99
68.84140313	80
68.85811439	94
68.87482566	100
68.89153693	87
68.9082482	98
68.92495947	87
68.94167074	81
68.95838201	88
68.97509328	102
68.99180455	81
69.00851582	98
69.02522708	74
69.04193835	99
69.05864962	99
69.07536089	85
69.09207216	104
69.10878343	102
69.1254947	96
69.14220597	107
69.15891724	99
69.17562851	100
69.19233977	92
69.20905104	91
69.22576231	81
69.24247358	85
69.25918485	106
69.27589612	97
69.29260739	84
69.30931866	104
69.32602993	106
69.3427412	99
69.35945246	82
69.37616373	100
69.392875	101
69.40958627	112
69.42629754	100
69.44300881	80
69.45972008	102
69.47643135	102
69.49314262	100
69.50985388	118
69.52656515	100
69.54327642	93
69.55998769	92
69.57669896	106
69.59341023	97
69.6101215	100
69.62683277	85
69.64354404	97
69.66025531	84
69.67696657	85
69.69367784	100
69.71038911	120
69.72710038	111
69.74381165	85
69.76052292	81
69.77723419	94
69.79394546	96
69.81065673	85
69.827368	82
69.84407926	95
69.86079053	88
69.8775018	113
69.89421307	91
69.91092434	117
69.92763561	120
69.94434688	107
69.96105815	110
69.97776942	103
69.99448069	113
70.01119195	88
70.02790322	114
70.04461449	113
70.06132576	102
70.07803703	119
70.0947483	120
70.11145957	124
70.12817084	110
70.14488211	127
70.16159338	139
70.17830464	129
70.19501591	143
70.21172718	144
70.22843845	159
70.24514972	186
70.26186099	177
70.27857226	176
70.29528353	203
70.3119948	215
70.32870606	214
70.34541733	247
70.3621286	264
70.37883987	270
70.39555114	311
70.41226241	405
70.42897368	568
70.44568495	716
70.46239622	1128
70.47910749	1518
70.49581875	2179
70.51253002	2708
70.52924129	3020
70.54595256	2818
70.56266383	2051
70.5793751	1378
70.59608637	941
70.61279764	652
70.62950891	614
70.64622018	652
70.66293144	809
70.67964271	1009
70.69635398	1230
70.71306525	1431
70.72977652	1585
70.74648779	1419
70.76319906	1063
70.77991033	728
70.7966216	483
70.81333287	384
70.83004413	296
70.8467554	246
70.86346667	205
70.88017794	179
70.89688921	190
70.91360048	134
70.93031175	158
70.94702302	141
70.96373429	142
70.98044555	169
70.99715682	142
71.01386809	170
71.03057936	178
71.04729063	205
71.0640019	203
71.08071317	212
71.09742444	159
71.11413571	165
71.13084698	131
71.14755824	115
71.16426951	123
71.18098078	127
71.19769205	130
71.21440332	142
71.23111459	135
71.24782586	153
71.26453713	153
71.2812484	127
71.29795967	126
71.31467093	133
71.3313822	114
71.34809347	124
71.36480474	100
71.38151601	119
71.39822728	113
71.41493855	97
71.43164982	103
71.44836109	112
71.46507236	108
71.48178362	98
71.49849489	98
71.51520616	91
71.53191743	83
71.5486287	110
71.56533997	97
71.58205124	109
71.59876251	93
71.61547378	95
71.63218505	94
71.64889631	106
71.66560758	98
71.68231885	99
71.69903012	111
71.71574139	117
71.73245266	88
71.74916393	89
71.7658752	88
71.78258647	95
71.79929773	102
71.816009	82
71.83272027	96
71.84943154	99
71.86614281	97
71.88285408	117
71.89956535	78
71.91627662	109
71.93298789	97
71.94969916	88
71.96641042	103
71.98312169	101
71.99983296	91
72.01654423	106
72.0332555	99
72.04996677	96
72.06667804	86
72.08338931	99
72.10010058	97
72.11681185	70
72.13352311	83
72.15023438	94
72.16694565	109
72.18365692	106
72.20036819	96
72.21707946	108
72.23379073	88
72.250502	87
72.26721327	86
72.28392454	92
72.3006358	91
72.31734707	79
72.33405834	106
72.35076961	53
72.36748088	101
72.38419215	88
72.40090342	79
72.41761469	83
72.43432596	94
72.45103723	87
72.46774849	80
72.48445976	104
72.50117103	103
72.5178823	99
72.53459357	89
72.55130484	114
72.56801611	78
72.58472738	95
72.60143865	98
72.61814991	78
72.63486118	109
72.65157245	91
72.66828372	88
72.68499499	91
72.70170626	113
72.71841753	83
72.7351288	103
72.75184007	96
72.76855134	86
72.7852626	108
72.80197387	74
72.81868514	102
72.83539641	102
72.85210768	113
72.86881895	87
72.88553022	94
72.90224149	111
72.91895276	94
72.93566403	99
72.95237529	80
72.96908656	96
72.98579783	118
73.0025091	92
73.01922037	78
73.03593164	93
73.05264291	118
73.06935418	88
73.08606545	95
73.10277672	86
73.11948798	109
73.13619925	92
73.15291052	101
73.16962179	98
73.18633306	102
73.20304433	98
73.2197556	98
73.23646687	100
73.25317814	114
73.2698894	99
73.28660067	91
73.30331194	86
73.32002321	91
73.33673448	109
73.35344575	97
73.37015702	100
73.38686829	91
73.40357956	80
73.42029083	100
73.43700209	116
73.45371336	95
73.47042463	91
73.4871359	116
73.50384717	97
73.52055844	104
73.53726971	100
73.55398098	106
73.57069225	98
73.58740352	96
73.60411478	101
73.62082605	113
73.63753732	108
73.65424859	107
73.67095986	111
73.68767113	124
73.7043824	99
73.72109367	117
73.73780494	88
73.75451621	102
73.77122747	107
73.78793874	98
73.80465001	84
73.82136128	96
73.83807255	120
73.85478382	97
73.87149509	110
73.88820636	89
73.90491763	95
73.9216289	106
73.93834016	98
73.95505143	108
73.9717627	115
73.98847397	102
74.00518524	104
74.02189651	115
74.03860778	108
74.05531905	113
74.07203032	98
74.08874158	130
74.10545285	119
74.12216412	122
74.13887539	129
74.15558666	116
74.17229793	131
74.1890092	108
74.20572047	120
74.22243174	118
74.23914301	127
74.25585427	131
74.27256554	112
74.28927681	127
74.30598808	158
74.32269935	135
74.33941062	143
74.35612189	147
74.37283316	156
74.38954443	145
74.4062557	143
74.42296696	170
74.43967823	162
74.4563895	172
74.47310077	160
74.48981204	174
74.50652331	131
74.52323458	160
74.53994585	156
74.55665712	192
74.57336839	182
74.59007965	208
74.60679092	204
74.62350219	208
74.64021346	210
74.65692473	247
74.673636	231
74.69034727	231
74.70705854	230
74.72376981	230
74.74048107	239
74.75719234	271
74.77390361	263
74.79061488	281
74.80732615	292
74.82403742	267
74.84074869	306
74.85745996	307
74.87417123	299
74.8908825	316
74.90759376	322
74.92430503	349
74.9410163	330
74.95772757	348
74.97443884	401
74.99115011	374
75.00786138	369
75.02457265	402
75.04128392	382
75.05799519	400
75.07470645	403
75.09141772	414
75.10812899	413
75.12484026	391
75.14155153	412
75.1582628	382
75.17497407	368
75.19168534	400
75.20839661	373
75.22510788	394
75.24181914	340
75.25853041	358
75.27524168	394
75.29195295	357
75.30866422	341
75.32537549	329
75.34208676	338
75.35879803	339
75.3755093	331
75.39222057	325
75.40893183	315
75.4256431	294
75.44235437	295
75.45906564	285
75.47577691	254
75.49248818	280
75.50919945	280
75.52591072	247
75.54262199	251
75.55933325	223
75.57604452	251
75.59275579	222
75.60946706	213
75.62617833	200
75.6428896	189
75.65960087	216
75.67631214	210
75.69302341	217
75.70973468	201
75.72644594	188
75.74315721	174
75.75986848	210
75.77657975	176
75.79329102	179
75.81000229	162
75.82671356	148
75.84342483	152
75.8601361	146
75.87684737	149
75.89355863	140
75.9102699	169
75.92698117	137
75.94369244	132
75.96040371	129
75.97711498	142
75.99382625	148
76.01053752	138
76.02724879	128
76.04396006	119
76.06067132	112
76.07738259	135
76.09409386	127
76.11080513	118
76.1275164	125
76.14422767	112
76.16093894	109
76.17765021	122
76.19436148	95
76.21107275	103
76.22778401	124
76.24449528	112
76.26120655	112
76.27791782	108
76.29462909	127
76.31134036	101
76.32805163	92
76.3447629	113
76.36147417	108
76.37818543	88
76.3948967	97
76.41160797	95
76.42831924	114
76.44503051	97
76.46174178	107
76.47845305	104
76.49516432	88
76.51187559	88
76.52858686	93
76.54529812	95
76.56200939	106
76.57872066	94
76.59543193	107
76.6121432	95
76.62885447	109
76.64556574	83
76.66227701	106
76.67898828	104
76.69569955	98
76.71241081	114
76.72912208	102
76.74583335	82
76.76254462	96
76.77925589	89
76.79596716	87
76.81267843	107
76.8293897	100
76.84610097	88
76.86281224	92
76.8795235	84
76.89623477	88
76.91294604	93
76.92965731	89
76.94636858	83
76.96307985	104
76.97979112	80
76.99650239	86
77.01321366	99
77.02992492	85
77.04663619	95
77.06334746	77
77.08005873	89
77.09677	98
77.11348127	106
77.13019254	95
77.14690381	87
77.16361508	93
77.18032635	83
77.19703761	83
77.21374888	92
77.23046015	89
77.24717142	94
77.26388269	94
77.28059396	97
77.29730523	91
77.3140165	101
77.33072777	115
77.34743904	93
77.3641503	96
77.38086157	130
77.39757284	129
77.41428411	140
77.43099538	183
77.44770665	217
77.46441792	280
77.48112919	303
77.49784046	299
77.51455173	261
77.53126299	215
77.54797426	213
77.56468553	187
77.5813968	139
77.59810807	174
77.61481934	156
77.63153061	125
77.64824188	128
77.66495315	143
77.68166442	161
77.69837568	177
77.71508695	188
77.73179822	192
77.74850949	192
77.76522076	187
77.78193203	133
77.7986433	102
77.81535457	133
77.83206584	117
77.8487771	95
77.86548837	89
77.88219964	115
77.89891091	95
77.91562218	89
77.93233345	82
77.94904472	100
77.96575599	89
77.98246726	104
77.99917853	71
78.01588979	93
78.03260106	93
78.04931233	87
78.0660236	99
78.08273487	97
78.09944614	84
78.11615741	74
78.13286868	87
78.14957995	96
78.16629122	82
78.18300248	99
78.19971375	92
78.21642502	74
78.23313629	86
78.24984756	102
78.26655883	91
78.2832701	98
78.29998137	79
78.31669264	97
78.33340391	79
78.35011517	97
78.36682644	82
78.38353771	84
78.40024898	93
78.41696025	73
78.43367152	86
78.45038279	78
78.46709406	102
78.48380533	76
78.5005166	98
78.51722786	97
78.53393913	82
78.5506504	100
78.56736167	82
78.58407294	77
78.60078421	72
78.61749548	71
78.63420675	80
78.65091802	88
78.66762928	92
78.68434055	73
78.70105182	80
78.71776309	79
78.73447436	70
78.75118563	82
78.7678969	69
78.78460817	73
78.80131944	80
78.81803071	81
78.83474197	82
78.85145324	71
78.86816451	107
78.88487578	73
78.90158705	97
78.91829832	80
78.93500959	80
78.95172086	72
78.96843213	82
78.9851434	76
79.00185466	85
79.01856593	93
79.0352772	96
79.05198847	68
79.06869974	78
79.08541101	74
79.10212228	68
79.11883355	100
79.13554482	72
79.15225609	73
79.16896735	83
79.18567862	73
79.20238989	66
79.21910116	85
79.23581243	84
79.2525237	72
79.26923497	94
79.28594624	85
79.30265751	93
79.31936877	76
79.33608004	58
79.35279131	82
79.36950258	85
79.38621385	77
79.40292512	80
79.41963639	84
79.43634766	59
79.45305893	71
79.4697702	81
79.48648146	80
79.50319273	81
79.519904	85
79.53661527	76
79.55332654	85
79.57003781	85
79.58674908	66
79.60346035	80
79.62017162	80
79.63688289	84
79.65359415	84
79.67030542	93
79.68701669	98
79.70372796	93
79.72043923	80
79.7371505	63
79.75386177	70
79.77057304	76
79.78728431	70
79.80399558	79
79.82070684	66
79.83741811	82
79.85412938	77
79.87084065	70
79.88755192	107
79.90426319	78
79.92097446	82
79.93768573	86
79.954397	85
79.97110827	69
79.98781953	82
80.0045308	94
80.02124207	80
80.03795334	81
80.05466461	93
80.07137588	69
80.08808715	88
80.10479842	83
80.12150969	88
80.13822095	87
80.15493222	70
80.17164349	82
80.18835476	91
80.20506603	91
80.2217773	104
80.23848857	81
80.25519984	79
80.27191111	102
80.28862238	85
80.30533364	82
80.32204491	80
80.33875618	80
80.35546745	88
80.37217872	81
80.38888999	88
80.40560126	94
80.42231253	81
80.4390238	67
80.45573507	79
80.47244633	81
80.4891576	82
80.50586887	80
80.52258014	77
80.53929141	70
80.55600268	76
80.57271395	76
80.58942522	92
80.60613649	82
80.62284776	83
80.63955902	83
80.65627029	92
80.67298156	82
80.68969283	96
80.7064041	68
80.72311537	84
80.73982664	89
80.75653791	87
80.77324918	84
80.78996044	92
80.80667171	83
80.82338298	81
80.84009425	78
80.85680552	92
80.87351679	68
80.89022806	78
80.90693933	84
80.9236506	61
80.94036187	86
80.95707313	81
80.9737844	74
80.99049567	102
81.00720694	96
81.02391821	73
81.04062948	84
81.05734075	82
81.07405202	84
81.09076329	88
81.10747456	76
81.12418582	89
81.14089709	88
81.15760836	81
81.17431963	89
81.1910309	94
81.20774217	104
81.22445344	82
81.24116471	81
81.25787598	74
81.27458725	93
81.29129851	87
81.30800978	79
81.32472105	94
81.34143232	88
81.35814359	100
81.37485486	73
81.39156613	77
81.4082774	85
81.42498867	101
81.44169994	101
81.4584112	91
81.47512247	102
81.49183374	82
81.50854501	107
81.52525628	99
81.54196755	81
81.55867882	120
81.57539009	79
81.59210136	103
81.60881262	95
81.62552389	111
81.64223516	103
81.65894643	103
81.6756577	112
81.69236897	102
81.70908024	113
81.72579151	112
81.74250278	123
81.75921405	134
81.77592531	110
81.79263658	134
81.80934785	127
81.82605912	113
81.84277039	135
81.85948166	133
81.87619293	154
81.8929042	138
81.90961547	129
81.92632674	150
81.943038	149
81.95974927	132
81.97646054	158
81.99317181	139
82.00988308	163
82.02659435	176
82.04330562	188
82.06001689	177
82.07672816	180
82.09343943	170
82.11015069	199
82.12686196	172
82.14357323	165
82.1602845	170
82.17699577	210
82.19370704	219
82.21041831	225
82.22712958	220
82.24384085	213
82.26055212	222
82.27726338	246
82.29397465	216
82.31068592	213
82.32739719	258
82.34410846	208
82.36081973	239
82.377531	233
82.39424227	250
82.41095354	263
82.4276648	296
82.44437607	303
82.46108734	355
82.47779861	390
82.49450988	411
82.51122115	454
82.52793242	413
82.54464369	412
82.56135496	336
82.57806623	309
82.59477749	264
82.61148876	260
82.62820003	247
82.6449113	245
82.66162257	233
82.67833384	276
82.69504511	255
82.71175638	273
82.72846765	293
82.74517892	270
82.76189018	271
82.77860145	278
82.79531272	246
82.81202399	250
82.82873526	218
82.84544653	203
82.8621578	175
82.87886907	183
82.89558034	202
82.91229161	172
82.92900287	157
82.94571414	161
82.96242541	182
82.97913668	171
82.99584795	175
83.01255922	160
83.02927049	154
83.04598176	132
83.06269303	142
83.07940429	142
83.09611556	135
83.11282683	123
83.1295381	149
83.14624937	142
83.16296064	137
83.17967191	120
83.19638318	133
83.21309445	102
83.22980572	114
83.24651698	118
83.26322825	111
83.27993952	112
83.29665079	110
83.31336206	112
83.33007333	106
83.3467846	122
83.36349587	125
83.38020714	110
83.39691841	113
83.41362967	82
83.43034094	111
83.44705221	98
83.46376348	86
83.48047475	104
83.49718602	108
83.51389729	94
83.53060856	102
83.54731983	97
83.5640311	81
83.58074236	86
83.59745363	82
83.6141649	87
83.63087617	88
83.64758744	86
83.66429871	81
83.68100998	99
83.69772125	87
83.71443252	96
83.73114379	89
83.74785505	83
83.76456632	84
83.78127759	85
83.79798886	85
83.81470013	100
83.8314114	92
83.84812267	84
83.86483394	88
83.88154521	70
83.89825647	93
83.91496774	67
83.93167901	84
83.94839028	76
83.96510155	77
83.98181282	79
83.99852409	95
84.01523536	84
84.03194663	83
84.0486579	84
84.06536916	62
84.08208043	114
84.0987917	87
84.11550297	89
84.13221424	84
84.14892551	87
84.16563678	82
84.18234805	100
84.19905932	76
84.21577059	91
84.23248185	74
84.24919312	78
84.26590439	95
84.28261566	77
84.29932693	67
84.3160382	66
84.33274947	82
84.34946074	70
84.36617201	92
84.38288328	88
84.39959454	70
84.41630581	76
84.43301708	73
84.44972835	91
84.46643962	73
84.48315089	97
84.49986216	66
84.51657343	70
84.5332847	92
84.54999596	74
84.56670723	86
84.5834185	78
84.60012977	62
84.61684104	66
84.63355231	62
84.65026358	93
84.66697485	61
84.68368612	69
84.70039739	78
84.71710865	82
84.73381992	71
84.75053119	68
84.76724246	86
84.78395373	79
84.800665	86
84.81737627	55
84.83408754	92
84.85079881	68
84.86751008	74
84.88422134	72
84.90093261	72
84.91764388	65
84.93435515	69
84.95106642	77
84.96777769	87
84.98448896	67
85.00120023	78
85.0179115	72
85.03462277	70
85.05133403	69
85.0680453	65
85.08475657	64
85.10146784	80
85.11817911	68
85.13489038	78
85.15160165	84
85.16831292	73
85.18502419	74
85.20173546	88
85.21844672	59
85.23515799	79
85.25186926	74
85.26858053	79
85.2852918	77
85.30200307	84
85.31871434	84
85.33542561	89
85.35213688	81
85.36884814	96
85.38555941	84
85.40227068	74
85.41898195	64
85.43569322	79
85.45240449	84
85.46911576	83
85.48582703	87
85.5025383	74
85.51924957	74
85.53596083	68
85.5526721	63
85.56938337	71
85.58609464	63
85.60280591	77
85.61951718	64
85.63622845	76
85.65293972	101
85.66965099	64
85.68636226	68
85.70307352	72
85.71978479	79
85.73649606	70
85.75320733	68
85.7699186	59
85.78662987	80
85.80334114	78
85.82005241	67
85.83676368	71
85.85347495	74
85.87018621	80
85.88689748	81
85.90360875	84
85.92032002	76
85.93703129	74
85.95374256	72
85.97045383	64
85.9871651	77
86.00387637	69
86.02058764	76
86.0372989	77
86.05401017	78
86.07072144	69
86.08743271	94
86.10414398	71
86.12085525	86
86.13756652	69
86.15427779	65
86.17098906	58
86.18770032	63
86.20441159	69
86.22112286	69
86.23783413	78
86.2545454	70
86.27125667	63
86.28796794	78
86.30467921	84
86.32139048	53
86.33810175	76
86.35481301	63
86.37152428	65
86.38823555	66
86.40494682	82
86.42165809	80
86.43836936	71
86.45508063	64
86.4717919	71
86.48850317	76
86.50521444	76
86.5219257	82
86.53863697	70
86.55534824	64
86.57205951	78
86.58877078	74
86.60548205	80
86.62219332	82
86.63890459	81
86.65561586	83
86.67232713	80
86.68903839	79
86.70574966	81
86.72246093	58
86.7391722	78
86.75588347	69
86.77259474	68
86.78930601	85
86.80601728	82
86.82272855	78
86.83943981	73
86.85615108	94
86.87286235	100
86.88957362	86
86.90628489	111
86.92299616	85
86.93970743	116
86.9564187	132
86.97312997	117
86.98984124	114
87.0065525	98
87.02326377	84
87.03997504	83
87.05668631	89
87.07339758	81
87.09010885	84
87.10682012	85
87.12353139	99
87.14024266	89
87.15695393	87
87.17366519	87
87.19037646	91
87.20708773	86
87.223799	86
87.24051027	92
87.25722154	91
87.27393281	85
87.29064408	65
87.30735535	82
87.32406662	73
87.34077788	72
87.35748915	73
87.37420042	70
87.39091169	65
87.40762296	82
87.42433423	77
87.4410455	74
87.45775677	68
87.47446804	79
87.49117931	67
87.50789057	69
87.52460184	73
87.54131311	73
87.55802438	73
87.57473565	78
87.59144692	68
87.60815819	67
87.62486946	70
87.64158073	80
87.65829199	77
87.67500326	78
87.69171453	80
87.7084258	63
87.72513707	80
87.74184834	69
87.75855961	82
87.77527088	91
87.79198215	68
87.80869342	57
87.82540468	67
87.84211595	64
87.85882722	79
87.87553849	80
87.89224976	64
87.90896103	78
87.9256723	66
87.94238357	72
87.95909484	82
87.97580611	66
87.99251737	59
88.00922864	81
88.02593991	70
88.04265118	57
88.05936245	70
88.07607372	62
88.09278499	71
88.10949626	93
88.12620753	68
88.1429188	82
88.15963006	64
88.17634133	55
88.1930526	71
88.20976387	65
88.22647514	76
88.24318641	81
88.25989768	69
88.27660895	64
88.29332022	49
88.31003148	62
88.32674275	59
88.34345402	67
88.36016529	69
88.37687656	69
88.39358783	80
88.4102991	66
88.42701037	83
88.44372164	91
88.46043291	73
88.47714417	74
88.49385544	76
88.51056671	83
88.52727798	67
88.54398925	83
88.56070052	56
88.57741179	83
88.59412306	70
88.61083433	66
88.6275456	73
88.64425686	79
88.66096813	74
88.6776794	65
88.69439067	66
88.71110194	73
88.72781321	59
88.74452448	68
88.76123575	66
88.77794702	71
88.79465829	77
88.81136955	81
88.82808082	72
88.84479209	81
88.86150336	71
88.87821463	73
88.8949259	82
88.91163717	81
88.92834844	56
88.94505971	74
88.96177098	71
88.97848224	65
88.99519351	66
89.01190478	82
89.02861605	73
89.04532732	77
89.06203859	83
89.07874986	78
89.09546113	84
89.1121724	83
89.12888366	62
89.14559493	86
89.1623062	73
89.17901747	78
89.19572874	86
89.21244001	74
89.22915128	70
89.24586255	72
89.26257382	76
89.27928509	85
89.29599635	83
89.31270762	89
89.32941889	69
89.34613016	79
89.36284143	81
89.3795527	73
89.39626397	66
89.41297524	80
89.42968651	72
89.44639778	68
89.46310904	79
89.47982031	73
89.49653158	92
89.51324285	74
89.52995412	78
89.54666539	86
89.56337666	76
89.58008793	74
89.5967992	69
89.61351047	84
89.63022173	84
89.646933	80
89.66364427	92
89.68035554	93
89.69706681	87
89.71377808	81
89.73048935	84
89.74720062	82
89.76391189	84
89.78062316	85
89.79733442	92
89.81404569	96
89.83075696	91
89.84746823	79
89.8641795	76
89.88089077	104
89.89760204	97
89.91431331	86
89.93102458	99
89.94773584	86
89.96444711	103
89.98115838	99
89.99786965	79
90.01458092	100
90.03129219	68
90.04800346	97
90.06471473	128
90.081426	106
90.09813727	102
90.11484853	101
90.1315598	95
90.14827107	120
90.16498234	126
90.18169361	116
90.19840488	131
90.21511615	134
90.23182742	160
90.24853869	184
90.26524996	197
90.28196122	237
90.29867249	323
90.31538376	394
90.33209503	416
90.3488063	498
90.36551757	546
90.38222884	420
90.39894011	377
90.41565138	304
90.43236265	225
90.44907391	194
90.46578518	167
90.48249645	186
90.49920772	173
90.51591899	164
90.53263026	186
90.54934153	176
90.5660528	187
90.58276407	246
90.59947533	251
90.6161866	268
90.63289787	306
90.64960914	296
90.66632041	268
90.68303168	247
90.69974295	183
90.71645422	165
90.73316549	187
90.74987676	143
90.76658802	141
90.78329929	134
90.80001056	133
90.81672183	153
90.8334331	133
90.85014437	114
90.86685564	127
90.88356691	147
90.90027818	133
90.91698945	125
90.93370071	126
90.95041198	110
90.96712325	106
90.98383452	125
91.00054579	116
91.01725706	123
91.03396833	119
91.0506796	120
91.06739087	110
91.08410214	113
91.1008134	103
91.11752467	127
91.13423594	96
91.15094721	123
91.16765848	125
91.18436975	128
91.20108102	112
91.21779229	122
91.23450356	125
91.25121483	124
91.26792609	85
91.28463736	101
91.30134863	116
91.3180599	93
91.33477117	111
91.35148244	123
91.36819371	103
91.38490498	109
91.40161625	99
91.41832751	107
91.43503878	100
91.45175005	111
91.46846132	112
91.48517259	85
91.50188386	109
91.51859513	81
91.5353064	103
91.55201767	82
91.56872894	109
91.5854402	93
91.60215147	94
91.61886274	95
91.63557401	83
91.65228528	77
91.66899655	97
91.68570782	74
91.70241909	92
91.71913036	95
91.73584163	68
91.75255289	83
91.76926416	82
91.78597543	95
91.8026867	85
91.81939797	77
91.83610924	104
91.85282051	94
91.86953178	100
91.88624305	97
91.90295432	67
91.91966558	72
91.93637685	73
91.95308812	95
91.96979939	83
91.98651066	80
92.00322193	76
92.0199332	76
92.03664447	96
92.05335574	84
92.07006701	82
92.08677827	67
92.10348954	84
92.12020081	93
92.13691208	77
92.15362335	74
92.17033462	69
92.18704589	73
92.20375716	91
92.22046843	63
92.23717969	83
92.25389096	80
92.27060223	74
92.2873135	77
92.30402477	78
92.32073604	77
92.33744731	88
92.35415858	76
92.37086985	77
92.38758112	66
92.40429238	68
92.42100365	79
92.43771492	91
92.45442619	70
92.47113746	73
92.48784873	68
92.50456	83
92.52127127	89
92.53798254	85
92.55469381	69
92.57140507	58
92.58811634	67
92.60482761	86
92.62153888	67
92.63825015	71
92.65496142	73
92.67167269	80
92.68838396	65
92.70509523	87
92.7218065	57
92.73851776	73
92.75522903	64
92.7719403	81
92.78865157	70
92.80536284	65
92.82207411	67
92.83878538	74
92.85549665	64
92.87220792	65
92.88891918	72
92.90563045	62
92.92234172	77
92.93905299	63
92.95576426	70
92.97247553	77
92.9891868	69
93.00589807	79
93.02260934	77
93.03932061	51
93.05603187	84
93.07274314	74
93.08945441	69
93.10616568	72
93.12287695	78
93.13958822	72
93.15629949	71
93.17301076	65
93.18972203	71
93.2064333	74
93.22314456	71
93.23985583	69
93.2565671	70
93.27327837	74
93.28998964	76
93.30670091	72
93.32341218	69
93.34012345	77
93.35683472	68
93.37354599	87
93.39025725	62
93.40696852	64
93.42367979	67
93.44039106	63
93.45710233	58
93.4738136	66
93.49052487	80
93.50723614	74
93.52394741	58
93.54065868	56
93.55736994	93
93.57408121	64
93.59079248	67
93.60750375	86
93.62421502	62
93.64092629	82
93.65763756	69
93.67434883	53
93.6910601	64
93.70777136	58
93.72448263	53
93.7411939	72
93.75790517	70
93.77461644	67
93.79132771	86
93.80803898	62
93.82475025	70
93.84146152	64
93.85817279	74
93.87488405	69
93.89159532	65
93.90830659	63
93.92501786	62
93.94172913	81
93.9584404	72
93.97515167	74
93.99186294	73
94.00857421	61
94.02528548	84
94.04199674	55
94.05870801	80
94.07541928	62
94.09213055	61
94.10884182	53
94.12555309	52
94.14226436	64
94.15897563	77
94.1756869	64
94.19239817	63
94.20910943	59
94.2258207	55
94.24253197	76
94.25924324	66
94.27595451	65
94.29266578	58
94.30937705	77
94.32608832	64
94.34279959	82
94.35951085	74
94.37622212	72
94.39293339	71
94.40964466	72
94.42635593	55
94.4430672	71
94.45977847	69
94.47648974	65
94.49320101	72
94.50991228	58
94.52662354	69
94.54333481	53
94.56004608	69
94.57675735	63
94.59346862	64
94.61017989	63
94.62689116	67
94.64360243	104
94.6603137	77
94.67702497	64
94.69373623	80
94.7104475	78
94.72715877	72
94.74387004	72
94.76058131	57
94.77729258	62
94.79400385	66
94.81071512	73
94.82742639	58
94.84413766	70
94.86084892	74
94.87756019	68
94.89427146	58
94.91098273	73
94.927694	71
94.94440527	79
94.96111654	71
94.97782781	50
94.99453908	67
95.01125035	68
95.02796161	77
95.04467288	79
95.06138415	65
95.07809542	73
95.09480669	72
95.11151796	66
95.12822923	69
95.1449405	77
95.16165177	87
95.17836303	81
95.1950743	57
95.21178557	83
95.22849684	81
95.24520811	79
95.26191938	79
95.27863065	96
95.29534192	82
95.31205319	77
95.32876446	96
95.34547572	74
95.36218699	81
95.37889826	70
95.39560953	77
95.4123208	55
95.42903207	64
95.44574334	82
95.46245461	55
95.47916588	89
95.49587715	74
95.51258841	79
95.52929968	58
95.54601095	71
95.56272222	74
95.57943349	88
95.59614476	84
95.61285603	73
95.6295673	68
95.64627857	95
95.66298984	82
95.6797011	73
95.69641237	73
95.71312364	83
95.72983491	76
95.74654618	80
95.76325745	71
95.77996872	92
95.79667999	74
95.81339126	62
95.83010253	57
95.84681379	78
95.86352506	62
95.88023633	73
95.8969476	74
95.91365887	70
95.93037014	78
95.94708141	68
95.96379268	66
95.98050395	72
95.99721521	88
96.01392648	76
96.03063775	61
96.04734902	79
96.06406029	74
96.08077156	70
96.09748283	92
96.1141941	61
96.13090537	70
96.14761664	83
96.1643279	71
96.18103917	71
96.19775044	66
96.21446171	69
96.23117298	68
96.24788425	77
96.26459552	79
96.28130679	66
96.29801806	82
96.31472933	71
96.33144059	70
96.34815186	66
96.36486313	86
96.3815744	68
96.39828567	87
96.41499694	79
96.43170821	70
96.44841948	78
96.46513075	74
96.48184202	65
96.49855328	66
96.51526455	80
96.53197582	69
96.54868709	70
96.56539836	58
96.58210963	73
96.5988209	71
96.61553217	68
96.63224344	78
96.6489547	63
96.66566597	79
96.68237724	84
96.69908851	77
96.71579978	48
96.73251105	73
96.74922232	78
96.76593359	61
96.78264486	71
96.79935613	62
96.81606739	66
96.83277866	78
96.84948993	78
96.8662012	87
96.88291247	76
96.89962374	78
96.91633501	77
96.93304628	69
96.94975755	80
96.96646882	67
96.98318008	82
96.99989135	64
97.01660262	79
97.03331389	58
97.05002516	76
97.06673643	62
97.0834477	72
97.10015897	70
97.11687024	77
97.13358151	83
97.15029277	73
97.16700404	76
97.18371531	71
97.20042658	61
97.21713785	78
97.23384912	71
97.25056039	70
97.26727166	77
97.28398293	70
97.3006942	71
97.31740546	83
97.33411673	57
97.350828	89
97.36753927	78
97.38425054	71
97.40096181	69
97.41767308	70
97.43438435	66
97.45109562	74
97.46780688	78
97.48451815	67
97.50122942	61
97.51794069	68
97.53465196	68
97.55136323	81
97.5680745	72
97.58478577	68
97.60149704	65
97.61820831	57
97.63491957	78
97.65163084	70
97.66834211	71
97.68505338	69
97.70176465	71
97.71847592	61
97.73518719	72
97.75189846	82
97.76860973	84
97.785321	62
97.80203226	57
97.81874353	59
97.8354548	63
97.85216607	61
97.86887734	70
97.88558861	52
97.90229988	61
97.91901115	51
97.93572242	55
97.95243369	95
97.96914495	66
97.98585622	57
98.00256749	69
98.01927876	72
98.03599003	50
98.0527013	81
98.06941257	55
98.08612384	58
98.10283511	77
98.11954637	50
98.13625764	69
98.15296891	65
98.16968018	67
98.18639145	64
98.20310272	51
98.21981399	78
98.23652526	64
98.25323653	58
98.2699478	69
98.28665906	62
98.30337033	61
98.3200816	87
98.33679287	58
98.35350414	68
98.37021541	72
98.38692668	67
98.40363795	73
98.42034922	62
98.43706049	67
98.45377175	74
98.47048302	57
98.48719429	50
98.50390556	69
98.52061683	77
98.5373281	57
98.55403937	58
98.57075064	63
98.58746191	55
98.60417318	64
98.62088444	85
98.63759571	70
98.65430698	67
98.67101825	85
98.68772952	79
98.70444079	69
98.72115206	64
98.73786333	66
98.7545746	69
98.77128587	61
98.78799713	72
98.8047084	64
98.82141967	63
98.83813094	72
98.85484221	74
98.87155348	74
98.88826475	61
98.90497602	81
98.92168729	62
98.93839855	83
98.95510982	72
98.97182109	77
98.98853236	54
99.00524363	70
99.0219549	66
99.03866617	66
99.05537744	65
99.07208871	73
99.08879998	84
99.10551124	80
99.12222251	57
99.13893378	65
99.15564505	66
99.17235632	68
99.18906759	70
99.20577886	55
99.22249013	77
99.2392014	67
99.25591267	66
99.27262393	79
99.2893352	51
99.30604647	55
99.32275774	68
99.33946901	80
99.35618028	78
99.37289155	72
99.38960282	69
99.40631409	63
99.42302536	67
99.43973662	68
99.45644789	62
99.47315916	83
99.48987043	57
99.5065817	52
99.52329297	57
99.54000424	68
99.55671551	64
99.57342678	77
99.59013805	69
99.60684931	80
99.62356058	62
99.64027185	70
99.65698312	63
99.67369439	62
99.69040566	61
99.70711693	74
99.7238282	67
99.74053947	79
99.75725073	70
99.773962	68
99.79067327	67
99.80738454	85
99.82409581	61
99.84080708	82
99.85751835	71
99.87422962	81
99.89094089	70
99.90765216	53
99.92436342	61
99.94107469	78
99.95778596	61
99.97449723	61
99.9912085	58