5.00435563	392
5.021066899	421
5.037778168	446
5.054489437	387
5.071200706	379
5.087911975	388
5.104623244	406
5.121334513	368
5.138045782	377
5.154757051	348
5.17146832	355
5.188179589	390
5.204890858	366
5.221602127	390
5.238313396	356
5.255024665	344
5.271735934	361
5.288447203	338
5.305158472	360
5.321869741	313
5.33858101	353
5.355292279	360
5.372003548	339
5.388714816	349
5.405426085	345
5.422137354	350
5.438848623	359
5.455559892	362
5.472271161	294
5.48898243	334
5.505693699	338
5.522404968	333
5.539116237	305
5.555827506	306
5.572538775	322
5.589250044	333
5.605961313	315
5.622672582	326
5.639383851	315
5.65609512	355
5.672806389	314
5.689517658	315
5.706228927	300
5.722940196	304
5.739651465	299
5.756362734	297
5.773074003	290
5.789785272	292
5.806496541	278
5.82320781	301
5.839919079	291
5.856630348	292
5.873341617	319
5.890052886	305
5.906764155	264
5.923475424	289
5.940186693	330
5.956897962	304
5.973609231	277
5.9903205	309
6.007031769	306
6.023743038	255
6.040454307	309
6.057165576	305
6.073876845	286
6.090588114	277
6.107299383	264
6.124010652	248
6.14072192	321
6.157433189	276
6.174144458	310
6.190855727	293
6.207566996	293
6.224278265	334
6.240989534	264
6.257700803	290
6.274412072	297
6.291123341	290
6.30783461	318
6.324545879	319
6.341257148	279
6.357968417	285
6.374679686	301
6.391390955	281
6.408102224	294
6.424813493	304
6.441524762	301
6.458236031	279
6.4749473	283
6.491658569	301
6.508369838	294
6.525081107	294
6.541792376	294
6.558503645	294
6.575214914	307
6.591926183	277
6.608637452	285
6.625348721	274
6.64205999	269
6.658771259	267
6.675482528	343
6.692193797	284
6.708905066	260
6.725616335	269
6.742327604	261
6.759038873	286
6.775750142	304
6.792461411	284
6.80917268	241
6.825883949	279
6.842595218	288
6.859306487	300
6.876017756	271
6.892729024	256
6.909440293	289
6.926151562	286
6.942862831	263
6.9595741	271
6.976285369	291
6.992996638	285
7.009707907	271
7.026419176	252
7.043130445	249
7.059841714	266
7.076552983	273
7.093264252	282
7.109975521	321
7.12668679	292
7.143398059	306
7.160109328	258
7.176820597	275
7.193531866	319
7.210243135	290
7.226954404	243
7.243665673	284
7.260376942	237
7.277088211	268
7.29379948	314
7.310510749	319
7.327222018	258
7.343933287	256
7.360644556	277
7.377355825	275
7.394067094	282
7.410778363	282
7.427489632	281
7.444200901	295
7.46091217	282
7.477623439	286
7.494334708	238
7.511045977	303
7.527757246	255
7.544468515	290
7.561179784	274
7.577891053	305
7.594602322	271
7.611313591	232
7.62802486	222
7.644736128	255
7.661447397	254
7.678158666	244
7.694869935	232
7.711581204	247
7.728292473	225
7.745003742	250
7.761715011	265
7.77842628	274
7.795137549	275
7.811848818	259
7.828560087	291
7.845271356	250
7.861982625	249
7.878693894	264
7.895405163	243
7.912116432	259
7.928827701	271
7.94553897	246
7.962250239	259
7.978961508	229
7.995672777	256
8.012384046	276
8.029095315	232
8.045806584	266
8.062517853	253
8.079229122	247
8.095940391	233
8.11265166	259
8.129362929	263
8.146074198	232
8.162785467	240
8.179496736	224
8.196208005	266
8.212919274	212
8.229630543	240
8.246341812	261
8.263053081	236
8.27976435	244
8.296475619	245
8.313186888	230
8.329898157	260
8.346609426	277
8.363320695	275
8.380031964	237
8.396743233	260
8.413454501	223
8.43016577	252
8.446877039	231
8.463588308	240
8.480299577	222
8.497010846	268
8.513722115	240
8.530433384	231
8.547144653	214
8.563855922	240
8.580567191	238
8.59727846	266
8.613989729	252
8.630700998	237
8.647412267	221
8.664123536	227
8.680834805	213
8.697546074	245
8.714257343	222
8.730968612	236
8.747679881	233
8.76439115	241
8.781102419	264
8.797813688	256
8.814524957	237
8.831236226	224
8.847947495	244
8.864658764	230
8.881370033	239
8.898081302	229
8.914792571	234
8.93150384	247
8.948215109	254
8.964926378	217
8.981637647	229
8.998348916	236
9.015060185	239
9.031771454	236
9.048482723	235
9.065193992	248
9.081905261	263
9.09861653	231
9.115327799	208
9.132039068	223
9.148750337	247
9.165461605	235
9.182172874	233
9.198884143	243
9.215595412	230
9.232306681	233
9.24901795	235
9.265729219	246
9.282440488	219
9.299151757	214
9.315863026	244
9.332574295	214
9.349285564	199
9.365996833	230
9.382708102	215
9.399419371	232
9.41613064	256
9.432841909	195
9.449553178	199
9.466264447	225
9.482975716	221
9.499686985	243
9.516398254	232
9.533109523	237
9.549820792	212
9.566532061	221
9.58324333	205
9.599954599	201
9.616665868	224
9.633377137	206
9.650088406	203
9.666799675	202
9.683510944	243
9.700222213	217
9.716933482	224
9.733644751	221
9.75035602	221
9.767067289	184
9.783778558	214
9.800489827	209
9.817201096	251
9.833912365	245
9.850623634	210
9.867334903	240
9.884046172	246
9.900757441	222
9.917468709	202
9.934179978	232
9.950891247	227
9.967602516	202
9.984313785	207
10.00102505	223
10.01773632	221
10.03444759	231
10.05115886	207
10.06787013	236
10.0845814	220
10.10129267	240
10.11800394	235
10.13471521	231
10.15142648	224
10.16813774	238
10.18484901	223
10.20156028	241
10.21827155	235
10.23498282	190
10.25169409	192
10.26840536	218
10.28511663	231
10.3018279	246
10.31853917	222
10.33525043	198
10.3519617	217
10.36867297	225
10.38538424	218
10.40209551	237
10.41880678	204
10.43551805	235
10.45222932	206
10.46894059	202
10.48565186	224
10.50236312	207
10.51907439	223
10.53578566	215
10.55249693	188
10.5692082	219
10.58591947	232
10.60263074	219
10.61934201	199
10.63605328	218
10.65276455	203
10.66947581	243
10.68618708	224
10.70289835	230
10.71960962	228
10.73632089	197
10.75303216	213
10.76974343	215
10.7864547	217
10.80316597	216
10.81987723	192
10.8365885	224
10.85329977	203
10.87001104	186
10.88672231	221
10.90343358	231
10.92014485	208
10.93685612	212
10.95356739	208
10.97027866	174
10.98698992	209
11.00370119	213
11.02041246	214
11.03712373	200
11.053835	222
11.07054627	233
11.08725754	221
11.10396881	212
11.12068008	209
11.13739135	234
11.15410261	220
11.17081388	199
11.18752515	195
11.20423642	233
11.22094769	243
11.23765896	221
11.25437023	209
11.2710815	182
11.28779277	208
11.30450404	215
11.3212153	223
11.33792657	234
11.35463784	192
11.37134911	231
11.38806038	209
11.40477165	205
11.42148292	184
11.43819419	198
11.45490546	187
11.47161672	197
11.48832799	206
11.50503926	233
11.52175053	216
11.5384618	259
11.55517307	192
11.57188434	219
11.58859561	224
11.60530688	232
11.62201815	199
11.63872941	195
11.65544068	202
11.67215195	222
11.68886322	215
11.70557449	222
11.72228576	235
11.73899703	207
11.7557083	192
11.77241957	209
11.78913084	218
11.8058421	207
11.82255337	199
11.83926464	238
11.85597591	213
11.87268718	202
11.88939845	224
11.90610972	191
11.92282099	200
11.93953226	231
11.95624353	263
11.97295479	215
11.98966606	213
12.00637733	245
12.0230886	228
12.03979987	227
12.05651114	197
12.07322241	234
12.08993368	239
12.10664495	217
12.12335622	221
12.14006748	215
12.15677875	225
12.17349002	217
12.19020129	188
12.20691256	199
12.22362383	171
12.2403351	205
12.25704637	201
12.27375764	197
12.2904689	207
12.30718017	224
12.32389144	228
12.34060271	223
12.35731398	223
12.37402525	204
12.39073652	214
12.40744779	240
12.42415906	234
12.44087033	202
12.45758159	213
12.47429286	203
12.49100413	205
12.5077154	202
12.52442667	191
12.54113794	219
12.55784921	202
12.57456048	186
12.59127175	209
12.60798302	232
12.62469428	206
12.64140555	220
12.65811682	229
12.67482809	220
12.69153936	210
12.70825063	222
12.7249619	216
12.74167317	219
12.75838444	222
12.77509571	188
12.79180697	224
12.80851824	213
12.82522951	209
12.84194078	216
12.85865205	187
12.87536332	209
12.89207459	217
12.90878586	230
12.92549713	214
12.94220839	183
12.95891966	170
12.97563093	179
12.9923422	209
13.00905347	223
13.02576474	204
13.04247601	246
13.05918728	223
13.07589855	215
13.09260982	228
13.10932108	212
13.12603235	214
13.14274362	195
13.15945489	198
13.17616616	202
13.19287743	230
13.2095887	198
13.22629997	225
13.24301124	222
13.25972251	215
13.27643377	248
13.29314504	210
13.30985631	221
13.32656758	210
13.34327885	191
13.35999012	209
13.37670139	205
13.39341266	203
13.41012393	236
13.4268352	189
13.44354646	234
13.46025773	208
13.476969	198
13.49368027	199
13.51039154	213
13.52710281	222
13.54381408	212
13.56052535	215
13.57723662	188
13.59394789	209
13.61065915	208
13.62737042	205
13.64408169	223
13.66079296	203
13.67750423	194
13.6942155	210
13.71092677	197
13.72763804	220
13.74434931	233
13.76106057	186
13.77777184	194
13.79448311	194
13.81119438	192
13.82790565	180
13.84461692	194
13.86132819	197
13.87803946	206
13.89475073	201
13.911462	193
13.92817326	204
13.94488453	225
13.9615958	207
13.97830707	222
13.99501834	223
14.01172961	220
14.02844088	200
14.04515215	204
14.06186342	198
14.07857469	197
14.09528595	192
14.11199722	206
14.12870849	192
14.14541976	199
14.16213103	222
14.1788423	198
14.19555357	224
14.21226484	192
14.22897611	223
14.24568738	192
14.26239864	195
14.27910991	233
14.29582118	225
14.31253245	223
14.32924372	188
14.34595499	216
14.36266626	197
14.37937753	203
14.3960888	229
14.41280007	215
14.42951133	206
14.4462226	224
14.46293387	185
14.47964514	214
14.49635641	203
14.51306768	238
14.52977895	204
14.54649022	225
14.56320149	193
14.57991275	212
14.59662402	216
14.61333529	222
14.63004656	198
14.64675783	215
14.6634691	215
14.68018037	205
14.69689164	231
14.71360291	225
14.73031418	193
14.74702544	193
14.76373671	193
14.78044798	197
14.79715925	170
14.81387052	210
14.83058179	206
14.84729306	203
14.86400433	213
14.8807156	225
14.89742687	202
14.91413813	179
14.9308494	189
14.94756067	234
14.96427194	175
14.98098321	215
14.99769448	215
15.01440575	217
15.03111702	212
15.04782829	223
15.06453956	203
15.08125082	177
15.09796209	217
15.11467336	213
15.13138463	199
15.1480959	223
15.16480717	198
15.18151844	195
15.19822971	195
15.21494098	190
15.23165224	174
15.24836351	227
15.26507478	194
15.28178605	191
15.29849732	202
15.31520859	194
15.33191986	190
15.34863113	190
15.3653424	221
15.38205367	199
15.39876493	207
15.4154762	195
15.43218747	203
15.44889874	185
15.46561001	225
15.48232128	204
15.49903255	203
15.51574382	186
15.53245509	219
15.54916636	193
15.56587762	199
15.58258889	178
15.59930016	172
15.61601143	191
15.6327227	204
15.64943397	190
15.66614524	192
15.68285651	195
15.69956778	217
15.71627905	207
15.73299031	195
15.74970158	194
15.76641285	202
15.78312412	238
15.79983539	219
15.81654666	217
15.83325793	195
15.8499692	202
15.86668047	202
15.88339174	182
15.900103	212
15.91681427	192
15.93352554	210
15.95023681	220
15.96694808	183
15.98365935	218
16.00037062	209
16.01708189	216
16.03379316	175
16.05050442	234
16.06721569	219
16.08392696	202
16.10063823	216
16.1173495	194
16.13406077	199
16.15077204	206
16.16748331	204
16.18419458	201
16.20090585	233
16.21761711	222
16.23432838	193
16.25103965	216
16.26775092	203
16.28446219	229
16.30117346	203
16.31788473	199
16.334596	190
16.35130727	219
16.36801854	202
16.3847298	177
16.40144107	210
16.41815234	205
16.43486361	205
16.45157488	190
16.46828615	188
16.48499742	189
16.50170869	191
16.51841996	219
16.53513123	193
16.55184249	219
16.56855376	202
16.58526503	215
16.6019763	194
16.61868757	210
16.63539884	208
16.65211011	204
16.66882138	237
16.68553265	185
16.70224391	210
16.71895518	191
16.73566645	180
16.75237772	201
16.76908899	190
16.78580026	173
16.80251153	217
16.8192228	197
16.83593407	206
16.85264534	192
16.8693566	198
16.88606787	200
16.90277914	191
16.91949041	213
16.93620168	201
16.95291295	202
16.96962422	185
16.98633549	203
17.00304676	193
17.01975803	191
17.03646929	215
17.05318056	198
17.06989183	217
17.0866031	217
17.10331437	191
17.12002564	201
17.13673691	199
17.15344818	224
17.17015945	197
17.18687072	189
17.20358198	186
17.22029325	197
17.23700452	207
17.25371579	179
17.27042706	203
17.28713833	192
17.3038496	190
17.32056087	200
17.33727214	210
17.35398341	201
17.37069467	209
17.38740594	199
17.40411721	192
17.42082848	208
17.43753975	203
17.45425102	188
17.47096229	206
17.48767356	187
17.50438483	182
17.52109609	168
17.53780736	219
17.55451863	199
17.5712299	173
17.58794117	189
17.60465244	206
17.62136371	204
17.63807498	236
17.65478625	193
17.67149752	197
17.68820878	195
17.70492005	194
17.72163132	194
17.73834259	205
17.75505386	197
17.77176513	195
17.7884764	208
17.80518767	213
17.82189894	201
17.83861021	176
17.85532147	188
17.87203274	203
17.88874401	207
17.90545528	197
17.92216655	201
17.93887782	208
17.95558909	205
17.97230036	195
17.98901163	203
18.0057229	195
18.02243416	185
18.03914543	188
18.0558567	195
18.07256797	201
18.08927924	193
18.10599051	221
18.12270178	205
18.13941305	183
18.15612432	187
18.17283559	195
18.18954685	188
18.20625812	172
18.22296939	198
18.23968066	209
18.25639193	198
18.2731032	206
18.28981447	199
18.30652574	193
18.32323701	189
18.33994827	197
18.35665954	215
18.37337081	216
18.39008208	189
18.40679335	217
18.42350462	180
18.44021589	194
18.45692716	217
18.47363843	183
18.4903497	193
18.50706096	201
18.52377223	199
18.5404835	169
18.55719477	179
18.57390604	194
18.59061731	204
18.60732858	234
18.62403985	212
18.64075112	218
18.65746239	219
18.67417365	208
18.69088492	213
18.70759619	215
18.72430746	218
18.74101873	221
18.75773	198
18.77444127	213
18.79115254	206
18.80786381	191
18.82457508	179
18.84128634	204
18.85799761	186
18.87470888	191
18.89142015	180
18.90813142	220
18.92484269	202
18.94155396	210
18.95826523	207
18.9749765	190
18.99168776	191
19.00839903	245
19.0251103	176
19.04182157	199
19.05853284	182
19.07524411	190
19.09195538	212
19.10866665	191
19.12537792	201
19.14208919	221
19.15880045	198
19.17551172	192
19.19222299	182
19.20893426	184
19.22564553	190
19.2423568	205
19.25906807	190
19.27577934	194
19.29249061	173
19.30920188	201
19.32591314	191
19.34262441	197
19.35933568	207
19.37604695	194
19.39275822	188
19.40946949	161
19.42618076	182
19.44289203	195
19.4596033	221
19.47631457	170
19.49302583	202
19.5097371	192
19.52644837	199
19.54315964	191
19.55987091	179
19.57658218	203
19.59329345	190
19.61000472	205
19.62671599	188
19.64342726	179
19.66013852	200
19.67684979	217
19.69356106	187
19.71027233	182
19.7269836	192
19.74369487	194
19.76040614	203
19.77711741	156
19.79382868	209
19.81053994	175
19.82725121	206
19.84396248	193
19.86067375	207
19.87738502	195
19.89409629	198
19.91080756	164
19.92751883	189
19.9442301	218
19.96094137	200
19.97765263	171
19.9943639	190
20.01107517	199
20.02778644	187
20.04449771	175
20.06120898	182
20.07792025	199
20.09463152	183
20.11134279	188
20.12805406	222
20.14476532	205
20.16147659	190
20.17818786	195
20.19489913	213
20.2116104	230
20.22832167	209
20.24503294	194
20.26174421	204
20.27845548	204
20.29516675	219
20.31187801	184
20.32858928	204
20.34530055	199
20.36201182	218
20.37872309	209
20.39543436	183
20.41214563	185
20.4288569	185
20.44556817	201
20.46227943	197
20.4789907	204
20.49570197	193
20.51241324	204
20.52912451	194
20.54583578	168
20.56254705	207
20.57925832	194
20.59596959	206
20.61268086	203
20.62939212	178
20.64610339	204
20.66281466	186
20.67952593	192
20.6962372	188
20.71294847	213
20.72965974	172
20.74637101	194
20.76308228	180
20.77979355	190
20.79650481	189
20.81321608	177
20.82992735	186
20.84663862	198
20.86334989	204
20.88006116	202
20.89677243	206
20.9134837	195
20.93019497	165
20.94690624	184
20.9636175	193
20.98032877	171
20.99704004	180
21.01375131	190
21.03046258	210
21.04717385	200
21.06388512	202
21.08059639	201
21.09730766	197
21.11401893	194
21.13073019	237
21.14744146	169
21.16415273	208
21.180864	206
21.19757527	190
21.21428654	210
21.23099781	191
21.24770908	194
21.26442035	193
21.28113161	206
21.29784288	228
21.31455415	200
21.33126542	201
21.34797669	193
21.36468796	204
21.38139923	192
21.3981105	207
21.41482177	201
21.43153304	191
21.4482443	220
21.46495557	186
21.48166684	203
21.49837811	198
21.51508938	178
21.53180065	185
21.54851192	189
21.56522319	171
21.58193446	165
21.59864573	193
21.61535699	192
21.63206826	201
21.64877953	194
21.6654908	192
21.68220207	212
21.69891334	223
21.71562461	209
21.73233588	175
21.74904715	194
21.76575842	183
21.78246968	164
21.79918095	193
21.81589222	191
21.83260349	193
21.84931476	190
21.86602603	207
21.8827373	201
21.89944857	219
21.91615984	191
21.93287111	210
21.94958237	212
21.96629364	195
21.98300491	169
21.99971618	213
22.01642745	213
22.03313872	198
22.04984999	168
22.06656126	185
22.08327253	177
22.09998379	188
22.11669506	224
22.13340633	202
22.1501176	207
22.16682887	197
22.18354014	194
22.20025141	190
22.21696268	204
22.23367395	171
22.25038522	194
22.26709648	194
22.28380775	204
22.30051902	201
22.31723029	204
22.33394156	156
22.35065283	188
22.3673641	223
22.38407537	202
22.40078664	186
22.41749791	192
22.43420917	184
22.45092044	224
22.46763171	221
22.48434298	210
22.50105425	186
22.51776552	198
22.53447679	203
22.55118806	175
22.56789933	205
22.5846106	205
22.60132186	197
22.61803313	205
22.6347444	190
22.65145567	183
22.66816694	170
22.68487821	170
22.70158948	195
22.71830075	182
22.73501202	197
22.75172328	180
22.76843455	192
22.78514582	194
22.80185709	205
22.81856836	165
22.83527963	197
22.8519909	201
22.86870217	197
22.88541344	200
22.90212471	214
22.91883597	185
22.93554724	192
22.95225851	199
22.96896978	206
22.98568105	212
23.00239232	189
23.01910359	198
23.03581486	206
23.05252613	200
23.0692374	179
23.08594866	193
23.10265993	210
23.1193712	159
23.13608247	202
23.15279374	198
23.16950501	198
23.18621628	182
23.20292755	206
23.21963882	209
23.23635009	188
23.25306135	184
23.26977262	204
23.28648389	207
23.30319516	208
23.31990643	214
23.3366177	210
23.35332897	199
23.37004024	195
23.38675151	184
23.40346278	194
23.42017404	179
23.43688531	178
23.45359658	206
23.47030785	169
23.48701912	190
23.50373039	185
23.52044166	189
23.53715293	195
23.5538642	202
23.57057546	198
23.58728673	189
23.603998	192
23.62070927	172
23.63742054	184
23.65413181	178
23.67084308	198
23.68755435	214
23.70426562	194
23.72097689	204
23.73768815	176
23.75439942	186
23.77111069	198
23.78782196	187
23.80453323	198
23.8212445	213
23.83795577	177
23.85466704	191
23.87137831	195
23.88808958	186
23.90480084	230
23.92151211	198
23.93822338	187
23.95493465	153
23.97164592	179
23.98835719	206
24.00506846	215
24.02177973	210
24.038491	162
24.05520227	172
24.07191353	171
24.0886248	207
24.10533607	176
24.12204734	189
24.13875861	160
24.15546988	180
24.17218115	186
24.18889242	204
24.20560369	184
24.22231496	205
24.23902622	193
24.25573749	201
24.27244876	200
24.28916003	194
24.3058713	195
24.32258257	185
24.33929384	199
24.35600511	187
24.37271638	195
24.38942764	169
24.40613891	182
24.42285018	180
24.43956145	185
24.45627272	188
24.47298399	191
24.48969526	198
24.50640653	182
24.5231178	194
24.53982907	187
24.55654033	175
24.5732516	186
24.58996287	183
24.60667414	212
24.62338541	180
24.64009668	180
24.65680795	170
24.67351922	179
24.69023049	204
24.70694176	180
24.72365302	190
24.74036429	200
24.75707556	190
24.77378683	178
24.7904981	183
24.80720937	210
24.82392064	185
24.84063191	173
24.85734318	215
24.87405445	176
24.89076571	195
24.90747698	182
24.92418825	198
24.94089952	186
24.95761079	205
24.97432206	199
24.99103333	194
25.0077446	177
25.02445587	216
25.04116713	176
25.0578784	210
25.07458967	205
25.09130094	168
25.10801221	203
25.12472348	191
25.14143475	190
25.15814602	185
25.17485729	215
25.19156856	185
25.20827982	169
25.22499109	175
25.24170236	190
25.25841363	180
25.2751249	178
25.29183617	187
25.30854744	200
25.32525871	177
25.34196998	193
25.35868125	189
25.37539251	194
25.39210378	177
25.40881505	188
25.42552632	188
25.44223759	174
25.45894886	191
25.47566013	189
25.4923714	187
25.50908267	182
25.52579394	189
25.5425052	248
25.55921647	190
25.57592774	197
25.59263901	174
25.60935028	177
25.62606155	219
25.64277282	213
25.65948409	195
25.67619536	189
25.69290663	188
25.70961789	208
25.72632916	207
25.74304043	184
25.7597517	206
25.77646297	200
25.79317424	210
25.80988551	171
25.82659678	188
25.84330805	198
25.86001931	192
25.87673058	197
25.89344185	199
25.91015312	197
25.92686439	214
25.94357566	174
25.96028693	203
25.9769982	173
25.99370947	194
26.01042074	186
26.027132	184
26.04384327	168
26.06055454	194
26.07726581	191
26.09397708	184
26.11068835	200
26.12739962	176
26.14411089	195
26.16082216	198
26.17753343	201
26.19424469	192
26.21095596	209
26.22766723	182
26.2443785	212
26.26108977	195
26.27780104	171
26.29451231	178
26.31122358	202
26.32793485	205
26.34464612	179
26.36135738	182
26.37806865	198
26.39477992	203
26.41149119	215
26.42820246	201
26.44491373	194
26.461625	187
26.47833627	176
26.49504754	186
26.5117588	176
26.52847007	195
26.54518134	171
26.56189261	228
26.57860388	184
26.59531515	175
26.61202642	167
26.62873769	179
26.64544896	205
26.66216023	194
26.67887149	205
26.69558276	173
26.71229403	186
26.7290053	162
26.74571657	201
26.76242784	195
26.77913911	193
26.79585038	199
26.81256165	194
26.82927292	187
26.84598418	190
26.86269545	207
26.87940672	221
26.89611799	188
26.91282926	186
26.92954053	182
26.9462518	182
26.96296307	177
26.97967434	215
26.99638561	210
27.01309687	215
27.02980814	215
27.04651941	184
27.06323068	194
27.07994195	207
27.09665322	194
27.11336449	205
27.13007576	193
27.14678703	198
27.1634983	203
27.18020956	208
27.19692083	186
27.2136321	227
27.23034337	183
27.24705464	216
27.26376591	179
27.28047718	199
27.29718845	182
27.31389972	178
27.33061098	185
27.34732225	209
27.36403352	202
27.38074479	174
27.39745606	189
27.41416733	217
27.4308786	172
27.44758987	195
27.46430114	189
27.48101241	204
27.49772367	173
27.51443494	191
27.53114621	190
27.54785748	203
27.56456875	154
27.58128002	169
27.59799129	186
27.61470256	185
27.63141383	189
27.6481251	208
27.66483636	210
27.68154763	171
27.6982589	180
27.71497017	183
27.73168144	161
27.74839271	200
27.76510398	233
27.78181525	187
27.79852652	186
27.81523779	172
27.83194905	214
27.84866032	206
27.86537159	188
27.88208286	194
27.89879413	191
27.9155054	204
27.93221667	214
27.94892794	214
27.96563921	190
27.98235048	202
27.99906174	178
28.01577301	182
28.03248428	214
28.04919555	200
28.06590682	212
28.08261809	197
28.09932936	203
28.11604063	218
28.1327519	182
28.14946316	207
28.16617443	192
28.1828857	206
28.19959697	183
28.21630824	210
28.23301951	179
28.24973078	203
28.26644205	193
28.28315332	202
28.29986459	210
28.31657585	206
28.33328712	203
28.34999839	184
28.36670966	201
28.38342093	203
28.4001322	174
28.41684347	212
28.43355474	192
28.45026601	194
28.46697728	190
28.48368854	200
28.50039981	182
28.51711108	184
28.53382235	174
28.55053362	207
28.56724489	216
28.58395616	188
28.60066743	188
28.6173787	218
28.63408997	220
28.65080123	189
28.6675125	184
28.68422377	213
28.70093504	227
28.71764631	171
28.73435758	201
28.75106885	199
28.76778012	206
28.78449139	199
28.80120265	180
28.81791392	212
28.83462519	174
28.85133646	171
28.86804773	200
28.884759	207
28.90147027	182
28.91818154	204
28.93489281	222
28.95160408	199
28.96831534	200
28.98502661	199
29.00173788	187
29.01844915	215
29.03516042	218
29.05187169	203
29.06858296	218
29.08529423	214
29.1020055	198
29.11871677	210
29.13542803	169
29.1521393	219
29.16885057	201
29.18556184	190
29.20227311	182
29.21898438	188
29.23569565	158
29.25240692	193
29.26911819	193
29.28582946	212
29.30254072	176
29.31925199	184
29.33596326	194
29.35267453	217
29.3693858	197
29.38609707	185
29.40280834	176
29.41951961	195
29.43623088	190
29.45294215	185
29.46965341	174
29.48636468	206
29.50307595	199
29.51978722	201
29.53649849	182
29.55320976	199
29.56992103	174
29.5866323	192
29.60334357	204
29.62005483	174
29.6367661	191
29.65347737	193
29.67018864	194
29.68689991	191
29.70361118	172
29.72032245	186
29.73703372	200
29.75374499	216
29.77045626	174
29.78716752	191
29.80387879	192
29.82059006	174
29.83730133	214
29.8540126	189
29.87072387	217
29.88743514	201
29.90414641	232
29.92085768	220
29.93756895	201
29.95428021	207
29.97099148	233
29.98770275	189
30.00441402	190
30.02112529	210
30.03783656	200
30.05454783	186
30.0712591	206
30.08797037	191
30.10468164	202
30.1213929	198
30.13810417	202
30.15481544	204
30.17152671	185
30.18823798	192
30.20494925	207
30.22166052	188
30.23837179	187
30.25508306	190
30.27179432	207
30.28850559	210
30.30521686	223
30.32192813	192
30.3386394	210
30.35535067	225
30.37206194	197
30.38877321	207
30.40548448	199
30.42219575	195
30.43890701	193
30.45561828	201
30.47232955	195
30.48904082	207
30.50575209	209
30.52246336	189
30.53917463	198
30.5558859	213
30.57259717	225
30.58930844	208
30.6060197	198
30.62273097	197
30.63944224	175
30.65615351	234
30.67286478	192
30.68957605	192
30.70628732	191
30.72299859	234
30.73970986	197
30.75642113	216
30.77313239	180
30.78984366	202
30.80655493	221
30.8232662	216
30.83997747	210
30.85668874	198
30.87340001	190
30.89011128	208
30.90682255	174
30.92353382	229
30.94024508	223
30.95695635	200
30.97366762	220
30.99037889	201
31.00709016	187
31.02380143	222
31.0405127	212
31.05722397	188
31.07393524	202
31.0906465	217
31.10735777	185
31.12406904	220
31.14078031	198
31.15749158	207
31.17420285	207
31.19091412	201
31.20762539	203
31.22433666	198
31.24104793	187
31.25775919	190
31.27447046	202
31.29118173	216
31.307893	214
31.32460427	203
31.34131554	201
31.35802681	227
31.37473808	223
31.39144935	202
31.40816062	191
31.42487188	223
31.44158315	219
31.45829442	212
31.47500569	231
31.49171696	204
31.50842823	205
31.5251395	213
31.54185077	199
31.55856204	167
31.57527331	228
31.59198457	188
31.60869584	209
31.62540711	206
31.64211838	193
31.65882965	209
31.67554092	199
31.69225219	223
31.70896346	217
31.72567473	227
31.742386	215
31.75909726	206
31.77580853	206
31.7925198	203
31.80923107	190
31.82594234	214
31.84265361	209
31.85936488	199
31.87607615	188
31.89278742	237
31.90949868	200
31.92620995	217
31.94292122	220
31.95963249	235
31.97634376	203
31.99305503	229
32.0097663	175
32.02647757	185
32.04318884	213
32.05990011	208
32.07661137	201
32.09332264	239
32.11003391	227
32.12674518	219
32.14345645	194
32.16016772	179
32.17687899	185
32.19359026	208
32.21030153	215
32.2270128	202
32.24372406	197
32.26043533	200
32.2771466	218
32.29385787	195
32.31056914	219
32.32728041	210
32.34399168	215
32.36070295	214
32.37741422	204
32.39412549	233
32.41083675	207
32.42754802	180
32.44425929	210
32.46097056	197
32.47768183	195
32.4943931	217
32.51110437	214
32.52781564	228
32.54452691	219
32.56123817	210
32.57794944	218
32.59466071	194
32.61137198	205
32.62808325	222
32.64479452	187
32.66150579	219
32.67821706	195
32.69492833	204
32.7116396	227
32.72835086	227
32.74506213	193
32.7617734	219
32.77848467	235
32.79519594	205
32.81190721	214
32.82861848	212
32.84532975	249
32.86204102	216
32.87875229	215
32.89546355	210
32.91217482	249
32.92888609	225
32.94559736	207
32.96230863	210
32.9790199	186
32.99573117	176
33.01244244	239
33.02915371	248
33.04586498	213
33.06257624	203
33.07928751	212
33.09599878	218
33.11271005	204
33.12942132	255
33.14613259	189
33.16284386	244
33.17955513	233
33.1962664	217
33.21297767	223
33.22968893	222
33.2464002	220
33.26311147	229
33.27982274	252
33.29653401	240
33.31324528	224
33.32995655	252
33.34666782	293
33.36337909	254
33.38009035	301
33.39680162	254
33.41351289	286
33.43022416	256
33.44693543	244
33.4636467	238
33.48035797	209
33.49706924	214
33.51378051	210
33.53049178	206
33.54720304	227
33.56391431	221
33.58062558	241
33.59733685	237
33.61404812	227
33.63075939	202
33.64747066	227
33.66418193	212
33.6808932	213
33.69760447	191
33.71431573	215
33.731027	210
33.74773827	225
33.76444954	212
33.78116081	245
33.79787208	224
33.81458335	219
33.83129462	205
33.84800589	227
33.86471716	207
33.88142842	238
33.89813969	239
33.91485096	216
33.93156223	232
33.9482735	201
33.96498477	214
33.98169604	237
33.99840731	232
34.01511858	235
34.03182984	221
34.04854111	238
34.06525238	235
34.08196365	230
34.09867492	247
34.11538619	235
34.13209746	240
34.14880873	213
34.16552	212
34.18223127	229
34.19894253	236
34.2156538	214
34.23236507	232
34.24907634	249
34.26578761	213
34.28249888	253
34.29921015	229
34.31592142	237
34.33263269	248
34.34934396	240
34.36605522	229
34.38276649	233
34.39947776	224
34.41618903	249
34.4329003	225
34.44961157	234
34.46632284	240
34.48303411	222
34.49974538	241
34.51645665	222
34.53316791	212
34.54987918	224
34.56659045	251
34.58330172	261
34.60001299	236
34.61672426	243
34.63343553	275
34.6501468	247
34.66685807	236
34.68356934	251
34.7002806	254
34.71699187	216
34.73370314	230
34.75041441	234
34.76712568	236
34.78383695	250
34.80054822	221
34.81725949	244
34.83397076	223
34.85068202	233
34.86739329	270
34.88410456	267
34.90081583	213
34.9175271	235
34.93423837	251
34.95094964	209
34.96766091	239
34.98437218	254
35.00108345	234
35.01779471	222
35.03450598	218
35.05121725	245
35.06792852	261
35.08463979	249
35.10135106	267
35.11806233	230
35.1347736	252
35.15148487	245
35.16819614	277
35.1849074	254
35.20161867	248
35.21832994	246
35.23504121	267
35.25175248	222
35.26846375	267
35.28517502	241
35.30188629	277
35.31859756	279
35.33530883	298
35.35202009	316
35.36873136	324
35.38544263	338
35.4021539	385
35.41886517	340
35.43557644	358
35.45228771	327
35.46899898	322
35.48571025	306
35.50242152	241
35.51913278	258
35.53584405	259
35.55255532	250
35.56926659	262
35.58597786	253
35.60268913	249
35.6194004	260
35.63611167	277
35.65282294	260
35.6695342	285
35.68624547	246
35.70295674	270
35.71966801	247
35.73637928	269
35.75309055	273
35.76980182	261
35.78651309	241
35.80322436	249
35.81993563	277
35.83664689	284
35.85335816	278
35.87006943	285
35.8867807	224
35.90349197	285
35.92020324	292
35.93691451	270
35.95362578	296
35.97033705	266
35.98704832	255
36.00375958	250
36.02047085	286
36.03718212	270
36.05389339	284
36.07060466	281
36.08731593	282
36.1040272	295
36.12073847	283
36.13744974	289
36.15416101	270
36.17087227	291
36.18758354	281
36.20429481	269
36.22100608	268
36.23771735	260
36.25442862	288
36.27113989	291
36.28785116	270
36.30456243	283
36.32127369	295
36.33798496	318
36.35469623	311
36.3714075	320
36.38811877	318
36.40483004	319
36.42154131	318
36.43825258	303
36.45496385	282
36.47167512	299
36.48838638	271
36.50509765	294
36.52180892	281
36.53852019	309
36.55523146	294
36.57194273	318
36.588654	333
36.60536527	313
36.62207654	349
36.63878781	340
36.65549907	381
36.67221034	427
36.68892161	489
36.70563288	551
36.72234415	579
36.73905542	630
36.75576669	744
36.77247796	767
36.78918923	870
36.8059005	945
36.82261176	1102
36.83932303	1320
36.8560343	1832
36.87274557	2697
36.88945684	4327
36.90616811	6966
36.92287938	10215
36.93959065	13217
36.95630192	15626
36.97301319	16211
36.98972445	16584
37.00643572	16068
37.02314699	14207
37.03985826	11656
37.05656953	9355
37.0732808	8447
37.08999207	7452
37.10670334	5994
37.12341461	3931
37.14012587	2179
37.15683714	1305
37.17354841	969
37.19025968	762
37.20697095	632
37.22368222	580
37.24039349	512
37.25710476	460
37.27381603	461
37.2905273	426
37.30723856	395
37.32394983	388
37.3406611	389
37.35737237	337
37.37408364	365
37.39079491	310
37.40750618	342
37.42421745	325
37.44092872	299
37.45763999	301
37.47435125	339
37.49106252	299
37.50777379	305
37.52448506	323
37.54119633	319
37.5579076	266
37.57461887	278
37.59133014	265
37.60804141	261
37.62475268	274
37.64146394	279
37.65817521	308
37.67488648	274
37.69159775	277
37.70830902	260
37.72502029	298
37.74173156	295
37.75844283	277
37.7751541	295
37.79186537	270
37.80857663	267
37.8252879	243
37.84199917	295
37.85871044	249
37.87542171	293
37.89213298	240
37.90884425	267
37.92555552	235
37.94226679	280
37.95897805	234
37.97568932	261
37.99240059	292
38.00911186	254
38.02582313	246
38.0425344	255
38.05924567	237
38.07595694	262
38.09266821	234
38.10937948	240
38.12609074	254
38.14280201	239
38.15951328	269
38.17622455	269
38.19293582	273
38.20964709	277
38.22635836	251
38.24306963	260
38.2597809	259
38.27649217	267
38.29320343	258
38.3099147	231
38.32662597	213
38.34333724	239
38.36004851	251
38.37675978	262
38.39347105	263
38.41018232	239
38.42689359	267
38.44360486	239
38.46031612	232
38.47702739	232
38.49373866	239
38.51044993	228
38.5271612	239
38.54387247	201
38.56058374	239
38.57729501	235
38.59400628	230
38.61071754	246
38.62742881	251
38.64414008	240
38.66085135	208
38.67756262	228
38.69427389	231
38.71098516	214
38.72769643	241
38.7444077	234
38.76111897	219
38.77783023	208
38.7945415	227
38.81125277	222
38.82796404	238
38.84467531	255
38.86138658	258
38.87809785	215
38.89480912	225
38.91152039	222
38.92823166	236
38.94494292	253
38.96165419	220
38.97836546	231
38.99507673	214
39.011788	218
39.02849927	215
39.04521054	197
39.06192181	236
39.07863308	244
39.09534435	220
39.11205561	231
39.12876688	216
39.14547815	234
39.16218942	234
39.17890069	237
39.19561196	212
39.21232323	234
39.2290345	210
39.24574577	219
39.26245704	215
39.2791683	246
39.29587957	230
39.31259084	217
39.32930211	216
39.34601338	207
39.36272465	222
39.37943592	223
39.39614719	236
39.41285846	248
39.42956972	231
39.44628099	225
39.46299226	256
39.47970353	233
39.4964148	262
39.51312607	246
39.52983734	233
39.54654861	237
39.56325988	240
39.57997115	269
39.59668241	320
39.61339368	368
39.63010495	418
39.64681622	420
39.66352749	395
39.68023876	388
39.69695003	395
39.7136613	369
39.73037257	343
39.74708384	368
39.7637951	313
39.78050637	350
39.79721764	285
39.81392891	296
39.83064018	246
39.84735145	220
39.86406272	234
39.88077399	252
39.89748526	192
39.91419653	252
39.93090779	235
39.94761906	249
39.96433033	203
39.9810416	201
39.99775287	250
40.01446414	214
40.03117541	224
40.04788668	221
40.06459795	235
40.08130921	232
40.09802048	233
40.11473175	225
40.13144302	212
40.14815429	235
40.16486556	232
40.18157683	216
40.1982881	218
40.21499937	202
40.23171064	217
40.2484219	203
40.26513317	235
40.28184444	222
40.29855571	220
40.31526698	206
40.33197825	228
40.34868952	229
40.36540079	210
40.38211206	223
40.39882333	218
40.41553459	219
40.43224586	215
40.44895713	203
40.4656684	205
40.48237967	238
40.49909094	219
40.51580221	244
40.53251348	198
40.54922475	235
40.56593602	220
40.58264728	200
40.59935855	227
40.61606982	220
40.63278109	220
40.64949236	219
40.66620363	224
40.6829149	233
40.69962617	222
40.71633744	223
40.73304871	240
40.74975997	241
40.76647124	204
40.78318251	212
40.79989378	203
40.81660505	220
40.83331632	212
40.85002759	236
40.86673886	229
40.88345013	217
40.90016139	229
40.91687266	243
40.93358393	193
40.9502952	230
40.96700647	228
40.98371774	209
41.00042901	203
41.01714028	235
41.03385155	238
41.05056282	248
41.06727408	216
41.08398535	207
41.10069662	207
41.11740789	206
41.13411916	230
41.15083043	216
41.1675417	239
41.18425297	204
41.20096424	238
41.21767551	225
41.23438677	221
41.25109804	206
41.26780931	229
41.28452058	228
41.30123185	220
41.31794312	205
41.33465439	219
41.35136566	212
41.36807693	233
41.3847882	208
41.40149946	218
41.41821073	205
41.434922	202
41.45163327	216
41.46834454	204
41.48505581	224
41.50176708	220
41.51847835	204
41.53518962	218
41.55190089	198
41.56861215	216
41.58532342	199
41.60203469	205
41.61874596	201
41.63545723	203
41.6521685	216
41.66887977	198
41.68559104	206
41.70230231	208
41.71901357	239
41.73572484	238
41.75243611	245
41.76914738	243
41.78585865	249
41.80256992	221
41.81928119	219
41.83599246	217
41.85270373	217
41.869415	214
41.88612626	220
41.90283753	202
41.9195488	223
41.93626007	232
41.95297134	227
41.96968261	243
41.98639388	240
42.00310515	241
42.01981642	250
42.03652769	233
42.05323895	238
42.06995022	218
42.08666149	252
42.10337276	213
42.12008403	188
42.1367953	191
42.15350657	234
42.17021784	206
42.18692911	184
42.20364038	203
42.22035164	219
42.23706291	230
42.25377418	231
42.27048545	243
42.28719672	206
42.30390799	220
42.32061926	189
42.33733053	205
42.3540418	250
42.37075306	190
42.38746433	225
42.4041756	213
42.42088687	246
42.43759814	232
42.45430941	216
42.47102068	203
42.48773195	227
42.50444322	219
42.52115449	223
42.53786575	247
42.55457702	195
42.57128829	194
42.58799956	204
42.60471083	213
42.6214221	234
42.63813337	209
42.65484464	215
42.67155591	224
42.68826718	221
42.70497844	194
42.72168971	246
42.73840098	202
42.75511225	220
42.77182352	233
42.78853479	215
42.80524606	250
42.82195733	230
42.8386686	228
42.85537987	227
42.87209113	261
42.8888024	224
42.90551367	202
42.92222494	219
42.93893621	204
42.95564748	240
42.97235875	215
42.98907002	204
43.00578129	200
43.02249256	214
43.03920382	195
43.05591509	244
43.07262636	215
43.08933763	207
43.1060489	220
43.12276017	244
43.13947144	237
43.15618271	180
43.17289398	221
43.18960524	214
43.20631651	233
43.22302778	236
43.23973905	201
43.25645032	234
43.27316159	206
43.28987286	215
43.30658413	227
43.3232954	222
43.34000667	238
43.35671793	253
43.3734292	219
43.39014047	238
43.40685174	216
43.42356301	228
43.44027428	210
43.45698555	241
43.47369682	263
43.49040809	205
43.50711936	220
43.52383062	225
43.54054189	237
43.55725316	276
43.57396443	245
43.5906757	228
43.60738697	289
43.62409824	265
43.64080951	314
43.65752078	350
43.67423205	359
43.69094331	364
43.70765458	364
43.72436585	436
43.74107712	392
43.75778839	389
43.77449966	552
43.79121093	659
43.8079222	872
43.82463347	1301
43.84134473	2059
43.858056	2907
43.87476727	3424
43.89147854	3644
43.90818981	3219
43.92490108	2684
43.94161235	2123
43.95832362	1915
43.97503489	2044
43.99174616	2065
44.00845742	1940
44.02516869	1619
44.04187996	1281
44.05859123	938
44.0753025	640
44.09201377	485
44.10872504	385
44.12543631	404
44.14214758	383
44.15885885	395
44.17557011	371
44.19228138	344
44.20899265	300
44.22570392	326
44.24241519	293
44.25912646	300
44.27583773	321
44.292549	327
44.30926027	327
44.32597154	337
44.3426828	280
44.35939407	320
44.37610534	301
44.39281661	286
44.40952788	299
44.42623915	323
44.44295042	276
44.45966169	303
44.47637296	296
44.49308423	281
44.50979549	268
44.52650676	292
44.54321803	262
44.5599293	260
44.57664057	275
44.59335184	268
44.61006311	265
44.62677438	289
44.64348565	260
44.66019691	256
44.67690818	264
44.69361945	254
44.71033072	255
44.72704199	246
44.74375326	264
44.76046453	290
44.7771758	266
44.79388707	260
44.81059834	278
44.8273096	285
44.84402087	295
44.86073214	295
44.87744341	263
44.89415468	301
44.91086595	294
44.92757722	315
44.94428849	321
44.96099976	319
44.97771103	328
44.99442229	313
45.01113356	334
45.02784483	349
45.0445561	340
45.06126737	333
45.07797864	368
45.09468991	389
45.11140118	349
45.12811245	384
45.14482372	359
45.16153498	351
45.17824625	310
45.19495752	364
45.21166879	365
45.22838006	333
45.24509133	349
45.2618026	345
45.27851387	343
45.29522514	329
45.31193641	309
45.32864767	315
45.34535894	290
45.36207021	276
45.37878148	295
45.39549275	265
45.41220402	276
45.42891529	237
45.44562656	279
45.46233783	245
45.47904909	254
45.49576036	246
45.51247163	259
45.5291829	243
45.54589417	260
45.56260544	231
45.57931671	229
45.59602798	229
45.61273925	251
45.62945052	248
45.64616178	225
45.66287305	227
45.67958432	210
45.69629559	239
45.71300686	234
45.72971813	230
45.7464294	210
45.76314067	210
45.77985194	221
45.79656321	227
45.81327447	234
45.82998574	229
45.84669701	223
45.86340828	250
45.88011955	201
45.89683082	220
45.91354209	221
45.93025336	208
45.94696463	190
45.9636759	204
45.98038716	210
45.99709843	204
46.0138097	200
46.03052097	190
46.04723224	191
46.06394351	198
46.08065478	214
46.09736605	222
46.11407732	203
46.13078858	218
46.14749985	183
46.16421112	205
46.18092239	224
46.19763366	191
46.21434493	208
46.2310562	229
46.24776747	204
46.26447874	191
46.28119001	195
46.29790127	156
46.31461254	207
46.33132381	203
46.34803508	202
46.36474635	191
46.38145762	193
46.39816889	197
46.41488016	180
46.43159143	217
46.4483027	200
46.46501396	204
46.48172523	214
46.4984365	202
46.51514777	204
46.53185904	210
46.54857031	213
46.56528158	217
46.58199285	192
46.59870412	189
46.61541539	199
46.63212665	187
46.64883792	205
46.66554919	194
46.68226046	200
46.69897173	188
46.715683	195
46.73239427	177
46.74910554	185
46.76581681	195
46.78252808	207
46.79923934	198
46.81595061	179
46.83266188	177
46.84937315	190
46.86608442	179
46.88279569	194
46.89950696	189
46.91621823	187
46.9329295	206
46.94964076	171
46.96635203	199
46.9830633	221
46.99977457	194
47.01648584	180
47.03319711	174
47.04990838	156
47.06661965	193
47.08333092	192
47.10004219	192
47.11675345	192
47.13346472	165
47.15017599	163
47.16688726	177
47.18359853	191
47.2003098	198
47.21702107	188
47.23373234	179
47.25044361	172
47.26715488	217
47.28386614	189
47.30057741	187
47.31728868	182
47.33399995	175
47.35071122	202
47.36742249	179
47.38413376	195
47.40084503	194
47.4175563	182
47.43426757	182
47.45097883	193
47.4676901	193
47.48440137	199
47.50111264	183
47.51782391	175
47.53453518	186
47.55124645	177
47.56795772	183
47.58466899	208
47.60138025	164
47.61809152	194
47.63480279	183
47.65151406	183
47.66822533	185
47.6849366	217
47.70164787	165
47.71835914	191
47.73507041	195
47.75178168	197
47.76849294	180
47.78520421	194
47.80191548	171
47.81862675	164
47.83533802	189
47.85204929	198
47.86876056	184
47.88547183	145
47.9021831	187
47.91889437	180
47.93560563	192
47.9523169	192
47.96902817	199
47.98573944	169
48.00245071	170
48.01916198	160
48.03587325	176
48.05258452	165
48.06929579	194
48.08600706	188
48.10271832	175
48.11942959	190
48.13614086	169
48.15285213	174
48.1695634	191
48.18627467	174
48.20298594	176
48.21969721	186
48.23640848	180
48.25311975	177
48.26983101	199
48.28654228	185
48.30325355	165
48.31996482	171
48.33667609	190
48.35338736	188
48.37009863	170
48.3868099	180
48.40352117	193
48.42023243	153
48.4369437	153
48.45365497	176
48.47036624	187
48.48707751	184
48.50378878	182
48.52050005	187
48.53721132	170
48.55392259	198
48.57063386	194
48.58734512	172
48.60405639	200
48.62076766	184
48.63747893	190
48.6541902	194
48.67090147	184
48.68761274	197
48.70432401	180
48.72103528	175
48.73774655	167
48.75445781	185
48.77116908	182
48.78788035	168
48.80459162	175
48.82130289	172
48.83801416	170
48.85472543	200
48.8714367	164
48.88814797	199
48.90485924	187
48.9215705	187
48.93828177	193
48.95499304	163
48.97170431	179
48.98841558	175
49.00512685	189
49.02183812	188
49.03854939	182
49.05526066	164
49.07197193	176
49.08868319	190
49.10539446	179
49.12210573	205
49.138817	185
49.15552827	175
49.17223954	168
49.18895081	194
49.20566208	175
49.22237335	185
49.23908461	188
49.25579588	195
49.27250715	177
49.28921842	152
49.30592969	170
49.32264096	168
49.33935223	167
49.3560635	180
49.37277477	213
49.38948604	192
49.4061973	177
49.42290857	174
49.43961984	194
49.45633111	177
49.47304238	198
49.48975365	193
49.50646492	179
49.52317619	190
49.53988746	192
49.55659873	204
49.57330999	180
49.59002126	170
49.60673253	179
49.6234438	195
49.64015507	167
49.65686634	172
49.67357761	190
49.69028888	164
49.70700015	203
49.72371142	186
49.74042268	187
49.75713395	174
49.77384522	165
49.79055649	180
49.80726776	184
49.82397903	162
49.8406903	179
49.85740157	189
49.87411284	168
49.8908241	193
49.90753537	175
49.92424664	162
49.94095791	188
49.95766918	178
49.97438045	154
49.99109172	195
50.00780299	171
50.02451426	182
50.04122553	175
50.05793679	163
50.07464806	160
50.09135933	183
50.1080706	184
50.12478187	169
50.14149314	199
50.15820441	189
50.17491568	193
50.19162695	195
50.20833822	180
50.22504948	168
50.24176075	173
50.25847202	171
50.27518329	169
50.29189456	180
50.30860583	205
50.3253171	162
50.34202837	175
50.35873964	185
50.37545091	174
50.39216217	171
50.40887344	168
50.42558471	160
50.44229598	168
50.45900725	200
50.47571852	194
50.49242979	176
50.50914106	195
50.52585233	160
50.5425636	163
50.55927486	139
50.57598613	182
50.5926974	180
50.60940867	176
50.62611994	168
50.64283121	170
50.65954248	182
50.67625375	176
50.69296502	167
50.70967628	163
50.72638755	197
50.74309882	198
50.75981009	182
50.77652136	169
50.79323263	173
50.8099439	193
50.82665517	191
50.84336644	198
50.86007771	187
50.87678897	183
50.89350024	229
50.91021151	183
50.92692278	186
50.94363405	175
50.96034532	198
50.97705659	186
50.99376786	184
51.01047913	173
51.0271904	195
51.04390166	190
51.06061293	190
51.0773242	177
51.09403547	186
51.11074674	209
51.12745801	187
51.14416928	162
51.16088055	203
51.17759182	179
51.19430309	191
51.21101435	164
51.22772562	178
51.24443689	183
51.26114816	195
51.27785943	180
51.2945707	193
51.31128197	182
51.32799324	193
51.34470451	187
51.36141578	188
51.37812704	189
51.39483831	206
51.41154958	172
51.42826085	189
51.44497212	175
51.46168339	182
51.47839466	165
51.49510593	190
51.5118172	203
51.52852846	177
51.54523973	179
51.561951	169
51.57866227	202
51.59537354	170
51.61208481	171
51.62879608	171
51.64550735	165
51.66221862	168
51.67892989	172
51.69564115	221
51.71235242	217
51.72906369	178
51.74577496	188
51.76248623	193
51.7791975	169
51.79590877	176
51.81262004	199
51.82933131	187
51.84604258	186
51.86275384	167
51.87946511	183
51.89617638	175
51.91288765	164
51.92959892	163
51.94631019	179
51.96302146	180
51.97973273	174
51.996444	200
52.01315527	170
52.02986653	188
52.0465778	158
52.06328907	167
52.08000034	192
52.09671161	173
52.11342288	167
52.13013415	180
52.14684542	182
52.16355669	179
52.18026795	186
52.19697922	171
52.21369049	183
52.23040176	176
52.24711303	173
52.2638243	172
52.28053557	172
52.29724684	180
52.31395811	188
52.33066938	160
52.34738064	189
52.36409191	168
52.38080318	163
52.39751445	157
52.41422572	184
52.43093699	193
52.44764826	172
52.46435953	170
52.4810708	188
52.49778207	180
52.51449333	185
52.5312046	176
52.54791587	168
52.56462714	188
52.58133841	194
52.59804968	157
52.61476095	174
52.63147222	169
52.64818349	186
52.66489476	172
52.68160602	169
52.69831729	164
52.71502856	164
52.73173983	200
52.7484511	174
52.76516237	158
52.78187364	189
52.79858491	193
52.81529618	174
52.83200745	195
52.84871871	147
52.86542998	160
52.88214125	173
52.89885252	164
52.91556379	168
52.93227506	182
52.94898633	197
52.9656976	176
52.98240887	195
52.99912013	202
53.0158314	197
53.03254267	190
53.04925394	187
53.06596521	187
53.08267648	183
53.09938775	184
53.11609902	187
53.13281029	172
53.14952156	155
53.16623282	189
53.18294409	187
53.19965536	157
53.21636663	175
53.2330779	157
53.24978917	157
53.26650044	163
53.28321171	186
53.29992298	174
53.31663425	193
53.33334551	178
53.35005678	164
53.36676805	165
53.38347932	186
53.40019059	168
53.41690186	182
53.43361313	180
53.4503244	160
53.46703567	168
53.48374694	174
53.5004582	159
53.51716947	193
53.53388074	173
53.55059201	192
53.56730328	160
53.58401455	178
53.60072582	193
53.61743709	176
53.63414836	182
53.65085962	183
53.66757089	184
53.68428216	189
53.70099343	190
53.7177047	169
53.73441597	173
53.75112724	163
53.76783851	174
53.78454978	169
53.80126105	201
53.81797231	174
53.83468358	152
53.85139485	137
53.86810612	169
53.88481739	162
53.90152866	175
53.91823993	146
53.9349512	162
53.95166247	190
53.96837374	167
53.985085	176
54.00179627	184
54.01850754	160
54.03521881	195
54.05193008	164
54.06864135	185
54.08535262	176
54.10206389	190
54.11877516	161
54.13548643	192
54.15219769	165
54.16890896	168
54.18562023	186
54.2023315	183
54.21904277	191
54.23575404	157
54.25246531	178
54.26917658	160
54.28588785	192
54.30259912	203
54.31931038	173
54.33602165	171
54.35273292	184
54.36944419	184
54.38615546	213
54.40286673	165
54.419578	175
54.43628927	171
54.45300054	184
54.4697118	184
54.48642307	148
54.50313434	167
54.51984561	165
54.53655688	185
54.55326815	173
54.56997942	178
54.58669069	167
54.60340196	206
54.62011323	195
54.63682449	172
54.65353576	186
54.67024703	193
54.6869583	237
54.70366957	232
54.72038084	215
54.73709211	249
54.75380338	234
54.77051465	259
54.78722592	219
54.80393718	277
54.82064845	261
54.83735972	308
54.85407099	323
54.87078226	389
54.88749353	515
54.9042048	792
54.92091607	1155
54.93762734	1572
54.95433861	2093
54.97104987	2290
54.98776114	2038
55.00447241	1692
55.02118368	1280
55.03789495	888
55.05460622	787
55.07131749	878
55.08802876	990
55.10474003	1190
55.1214513	1246
55.13816256	1094
55.15487383	866
55.1715851	611
55.18829637	394
55.20500764	337
55.22171891	247
55.23843018	245
55.25514145	220
55.27185272	215
55.28856398	219
55.30527525	219
55.32198652	227
55.33869779	228
55.35540906	214
55.37212033	189
55.3888316	182
55.40554287	198
55.42225414	180
55.43896541	187
55.45567667	180
55.47238794	177
55.48909921	189
55.50581048	189
55.52252175	198
55.53923302	182
55.55594429	182
55.57265556	174
55.58936683	164
55.6060781	173
55.62278936	150
55.63950063	180
55.6562119	171
55.67292317	191
55.68963444	197
55.70634571	186
55.72305698	167
55.73976825	164
55.75647952	178
55.77319079	212
55.78990205	174
55.80661332	163
55.82332459	164
55.84003586	176
55.85674713	158
55.8734584	178
55.89016967	189
55.90688094	173
55.92359221	179
55.94030347	182
55.95701474	178
55.97372601	139
55.99043728	158
56.00714855	177
56.02385982	167
56.04057109	163
56.05728236	192
56.07399363	173
56.0907049	170
56.10741616	178
56.12412743	173
56.1408387	178
56.15754997	172
56.17426124	176
56.19097251	172
56.20768378	190
56.22439505	168
56.24110632	167
56.25781759	187
56.27452885	158
56.29124012	190
56.30795139	172
56.32466266	156
56.34137393	155
56.3580852	178
56.37479647	173
56.39150774	174
56.40821901	168
56.42493028	175
56.44164154	182
56.45835281	157
56.47506408	149
56.49177535	147
56.50848662	167
56.52519789	174
56.54190916	169
56.55862043	193
56.5753317	182
56.59204297	145
56.60875423	167
56.6254655	177
56.64217677	150
56.65888804	173
56.67559931	168
56.69231058	168
56.70902185	203
56.72573312	156
56.74244439	178
56.75915565	160
56.77586692	188
56.79257819	169
56.80928946	149
56.82600073	178
56.842712	171
56.85942327	163
56.87613454	173
56.89284581	156
56.90955708	165
56.92626834	169
56.94297961	185
56.95969088	189
56.97640215	159
56.99311342	157
57.00982469	172
57.02653596	164
57.04324723	155
57.0599585	162
57.07666977	175
57.09338103	150
57.1100923	200
57.12680357	170
57.14351484	162
57.16022611	164
57.17693738	179
57.19364865	179
57.21035992	159
57.22707119	186
57.24378246	169
57.26049372	155
57.27720499	170
57.29391626	200
57.31062753	175
57.3273388	168
57.34405007	179
57.36076134	184
57.37747261	182
57.39418388	149
57.41089514	171
57.42760641	155
57.44431768	206
57.46102895	165
57.47774022	171
57.49445149	162
57.51116276	174
57.52787403	165
57.5445853	174
57.56129657	167
57.57800783	168
57.5947191	170
57.61143037	180
57.62814164	160
57.64485291	134
57.66156418	160
57.67827545	165
57.69498672	164
57.71169799	157
57.72840926	164
57.74512052	157
57.76183179	163
57.77854306	187
57.79525433	169
57.8119656	164
57.82867687	163
57.84538814	169
57.86209941	135
57.87881068	164
57.89552195	141
57.91223321	173
57.92894448	163
57.94565575	156
57.96236702	184
57.97907829	157
57.99578956	148
58.01250083	163
58.0292121	165
58.04592337	176
58.06263464	163
58.0793459	160
58.09605717	152
58.11276844	185
58.12947971	153
58.14619098	174
58.16290225	168
58.17961352	169
58.19632479	158
58.21303606	150
58.22974732	182
58.24645859	154
58.26316986	168
58.27988113	190
58.2965924	174
58.31330367	169
58.33001494	147
58.34672621	147
58.36343748	175
58.38014875	174
58.39686001	150
58.41357128	149
58.43028255	163
58.44699382	180
58.46370509	188
58.48041636	167
58.49712763	182
58.5138389	154
58.53055017	178
58.54726144	168
58.5639727	174
58.58068397	175
58.59739524	158
58.61410651	158
58.63081778	176
58.64752905	162
58.66424032	176
58.68095159	171
58.69766286	189
58.71437413	162
58.73108539	176
58.74779666	154
58.76450793	161
58.7812192	143
58.79793047	168
58.81464174	193
58.83135301	176
58.84806428	174
58.86477555	159
58.88148682	172
58.89819808	188
58.91490935	187
58.93162062	162
58.94833189	190
58.96504316	177
58.98175443	178
58.9984657	165
59.01517697	165
59.03188824	161
59.0485995	148
59.06531077	189
59.08202204	188
59.09873331	173
59.11544458	167
59.13215585	172
59.14886712	171
59.16557839	187
59.18228966	180
59.19900093	155
59.21571219	191
59.23242346	178
59.24913473	179
59.265846	174
59.28255727	185
59.29926854	187
59.31597981	200
59.33269108	185
59.34940235	184
59.36611362	170
59.38282488	157
59.39953615	152
59.41624742	186
59.43295869	158
59.44966996	167
59.46638123	152
59.4830925	186
59.49980377	188
59.51651504	179
59.53322631	176
59.54993757	174
59.56664884	162
59.58336011	180
59.60007138	169
59.61678265	160
59.63349392	159
59.65020519	158
59.66691646	169
59.68362773	168
59.70033899	163
59.71705026	169
59.73376153	159
59.7504728	160
59.76718407	173
59.78389534	141
59.80060661	145
59.81731788	168
59.83402915	175
59.85074042	169
59.86745168	153
59.88416295	186
59.90087422	179
59.91758549	164
59.93429676	185
59.95100803	169
59.9677193	168
59.98443057	161
60.00114184	185
60.01785311	167
60.03456437	165
60.05127564	175
60.06798691	156
60.08469818	180
60.10140945	165
60.11812072	183
60.13483199	171
60.15154326	176
60.16825453	172
60.1849658	152
60.20167706	182
60.21838833	178
60.2350996	161
60.25181087	158
60.26852214	164
60.28523341	183
60.30194468	171
60.31865595	176
60.33536722	170
60.35207849	150
60.36878975	187
60.38550102	159
60.40221229	155
60.41892356	179
60.43563483	154
60.4523461	174
60.46905737	188
60.48576864	165
60.50247991	183
60.51919117	190
60.53590244	153
60.55261371	165
60.56932498	180
60.58603625	197
60.60274752	186
60.61945879	161
60.63617006	171
60.65288133	159
60.6695926	180
60.68630386	155
60.70301513	192
60.7197264	183
60.73643767	183
60.75314894	175
60.76986021	174
60.78657148	172
60.80328275	148
60.81999402	154
60.83670529	163
60.85341655	173
60.87012782	157
60.88683909	149
60.90355036	183
60.92026163	175
60.9369729	165
60.95368417	164
60.97039544	154
60.98710671	176
61.00381798	185
61.02052924	168
61.03724051	153
61.05395178	152
61.07066305	162
61.08737432	158
61.10408559	167
61.12079686	168
61.13750813	154
61.1542194	164
61.17093066	188
61.18764193	155
61.2043532	146
61.22106447	142
61.23777574	164
61.25448701	180
61.27119828	150
61.28790955	183
61.30462082	146
61.32133209	168
61.33804335	183
61.35475462	180
61.37146589	152
61.38817716	186
61.40488843	175
61.4215997	179
61.43831097	185
61.45502224	169
61.47173351	188
61.48844478	169
61.50515604	168
61.52186731	170
61.53857858	189
61.55528985	183
61.57200112	164
61.58871239	161
61.60542366	163
61.62213493	176
61.6388462	170
61.65555747	182
61.67226873	177
61.68898	147
61.70569127	178
61.72240254	177
61.73911381	172
61.75582508	170
61.77253635	158
61.78924762	193
61.80595889	160
61.82267016	160
61.83938142	173
61.85609269	156
61.87280396	183
61.88951523	169
61.9062265	172
61.92293777	177
61.93964904	167
61.95636031	179
61.97307158	150
61.98978284	140
62.00649411	178
62.02320538	148
62.03991665	163
62.05662792	197
62.07333919	179
62.09005046	176
62.10676173	161
62.123473	162
62.14018427	159
62.15689553	161
62.1736068	173
62.19031807	169
62.20702934	188
62.22374061	156
62.24045188	155
62.25716315	160
62.27387442	174
62.29058569	173
62.30729696	169
62.32400822	145
62.34071949	174
62.35743076	165
62.37414203	171
62.3908533	172
62.40756457	149
62.42427584	178
62.44098711	175
62.45769838	173
62.47440965	163
62.49112091	165
62.50783218	173
62.52454345	160
62.54125472	149
62.55796599	171
62.57467726	158
62.59138853	173
62.6080998	172
62.62481107	167
62.64152234	158
62.6582336	180
62.67494487	174
62.69165614	168
62.70836741	168
62.72507868	160
62.74178995	156
62.75850122	159
62.77521249	179
62.79192376	164
62.80863502	190
62.82534629	178
62.84205756	180
62.85876883	150
62.8754801	160
62.89219137	173
62.90890264	163
62.92561391	193
62.94232518	161
62.95903645	173
62.97574771	176
62.99245898	200
63.00917025	186
63.02588152	172
63.04259279	167
63.05930406	171
63.07601533	168
63.0927266	178
63.10943787	197
63.12614914	171
63.1428604	209
63.15957167	222
63.17628294	168
63.19299421	190
63.20970548	190
63.22641675	173
63.24312802	174
63.25983929	199
63.27655056	168
63.29326183	199
63.30997309	167
63.32668436	167
63.34339563	164
63.3601069	177
63.37681817	169
63.39352944	170
63.41024071	164
63.42695198	193
63.44366325	184
63.46037451	171
63.47708578	161
63.49379705	148
63.51050832	192
63.52721959	175
63.54393086	169
63.56064213	144
63.5773534	174
63.59406467	160
63.61077594	187
63.6274872	180
63.64419847	192
63.66090974	185
63.67762101	170
63.69433228	168
63.71104355	199
63.72775482	161
63.74446609	159
63.76117736	177
63.77788863	168
63.79459989	175
63.81131116	157
63.82802243	176
63.8447337	150
63.86144497	185
63.87815624	178
63.89486751	131
63.91157878	163
63.92829005	167
63.94500132	188
63.96171258	163
63.97842385	178
63.99513512	177
64.01184639	183
64.02855766	172
64.04526893	184
64.0619802	172
64.07869147	200
64.09540274	194
64.11211401	160
64.12882527	198
64.14553654	190
64.16224781	160
64.17895908	183
64.19567035	208
64.21238162	159
64.22909289	172
64.24580416	195
64.26251543	188
64.27922669	174
64.29593796	203
64.31264923	175
64.3293605	187
64.34607177	209
64.36278304	193
64.37949431	174
64.39620558	156
64.41291685	204
64.42962812	157
64.44633938	172
64.46305065	190
64.47976192	178
64.49647319	180
64.51318446	198
64.52989573	229
64.546607	207
64.56331827	186
64.58002954	209
64.59674081	198
64.61345207	200
64.63016334	209
64.64687461	214
64.66358588	202
64.68029715	213
64.69700842	208
64.71371969	221
64.73043096	230
64.74714223	208
64.7638535	185
64.78056476	209
64.79727603	194
64.8139873	216
64.83069857	212
64.84740984	238
64.86412111	215
64.88083238	228
64.89754365	225
64.91425492	233
64.93096619	229
64.94767745	254
64.96438872	230
64.98109999	219
64.99781126	243
65.01452253	227
65.0312338	197
65.04794507	238
65.06465634	251
65.08136761	193
65.09807887	229
65.11479014	227
65.13150141	244
65.14821268	230
65.16492395	230
65.18163522	236
65.19834649	221
65.21505776	245
65.23176903	239
65.2484803	225
65.26519156	235
65.28190283	247
65.2986141	216
65.31532537	214
65.33203664	225
65.34874791	229
65.36545918	219
65.38217045	230
65.39888172	228
65.41559299	235
65.43230425	204
65.44901552	201
65.46572679	208
65.48243806	221
65.49914933	237
65.5158606	210
65.53257187	215
65.54928314	215
65.56599441	230
65.58270568	214
65.59941694	236
65.61612821	206
65.63283948	217
65.64955075	222
65.66626202	206
65.68297329	228
65.69968456	193
65.71639583	228
65.7331071	209
65.74981836	209
65.76652963	176
65.7832409	204
65.79995217	213
65.81666344	224
65.83337471	212
65.85008598	205
65.86679725	190
65.88350852	197
65.90021979	190
65.91693105	197
65.93364232	215
65.95035359	195
65.96706486	197
65.98377613	237
66.0004874	183
66.01719867	195
66.03390994	180
66.05062121	195
66.06733248	192
66.08404374	188
66.10075501	188
66.11746628	192
66.13417755	213
66.15088882	204
66.16760009	175
66.18431136	186
66.20102263	175
66.2177339	203
66.23444517	204
66.25115643	187
66.2678677	163
66.28457897	135
66.30129024	210
66.31800151	171
66.33471278	186
66.35142405	167
66.36813532	190
66.38484659	187
66.40155786	183
66.41826912	178
66.43498039	168
66.45169166	174
66.46840293	161
66.4851142	192
66.50182547	186
66.51853674	183
66.53524801	213
66.55195928	172
66.56867054	192
66.58538181	186
66.60209308	197
66.61880435	143
66.63551562	173
66.65222689	182
66.66893816	175
66.68564943	175
66.7023607	186
66.71907197	198
66.73578323	187
66.7524945	199
66.76920577	174
66.78591704	190
66.80262831	176
66.81933958	187
66.83605085	180
66.85276212	161
66.86947339	163
66.88618466	189
66.90289592	192
66.91960719	201
66.93631846	172
66.95302973	155
66.969741	188
66.98645227	158
67.00316354	184
67.01987481	165
67.03658608	198
67.05329735	189
67.07000861	180
67.08671988	213
67.10343115	206
67.12014242	173
67.13685369	162
67.15356496	172
67.17027623	162
67.1869875	186
67.20369877	165
67.22041003	182
67.2371213	194
67.25383257	191
67.27054384	195
67.28725511	183
67.30396638	187
67.32067765	176
67.33738892	178
67.35410019	168
67.37081146	197
67.38752272	228
67.40423399	190
67.42094526	221
67.43765653	193
67.4543678	195
67.47107907	191
67.48779034	187
67.50450161	205
67.52121288	190
67.53792415	175
67.55463541	174
67.57134668	199
67.58805795	194
67.60476922	182
67.62148049	165
67.63819176	190
67.65490303	218
67.6716143	190
67.68832557	177
67.70503684	183
67.7217481	190
67.73845937	176
67.75517064	180
67.77188191	183
67.78859318	189
67.80530445	171
67.82201572	185
67.83872699	177
67.85543826	197
67.87214953	193
67.88886079	172
67.90557206	187
67.92228333	182
67.9389946	175
67.95570587	192
67.97241714	179
67.98912841	194
68.00583968	201
68.02255095	189
68.03926221	190
68.05597348	179
68.07268475	185
68.08939602	175
68.10610729	171
68.12281856	184
68.13952983	190
68.1562411	177
68.17295237	220
68.18966364	170
68.2063749	187
68.22308617	198
68.23979744	186
68.25650871	169
68.27321998	161
68.28993125	168
68.30664252	186
68.32335379	142
68.34006506	168
68.35677633	162
68.37348759	194
68.39019886	155
68.40691013	184
68.4236214	201
68.44033267	168
68.45704394	197
68.47375521	188
68.49046648	187
68.50717775	188
68.52388902	193
68.54060028	188
68.55731155	209
68.57402282	185
68.59073409	191
68.60744536	193
68.62415663	171
68.6408679	184
68.65757917	194
68.67429044	183
68.69100171	193
68.70771297	163
68.72442424	187
68.74113551	206
68.75784678	182
68.77455805	168
68.79126932	189
68.80798059	198
68.82469186	169
68.84140313	195
68.85811439	180
68.87482566	206
68.89153693	197
68.9082482	179
68.92495947	195
68.94167074	204
68.95838201	190
68.97509328	172
68.99180455	189
69.00851582	191
69.02522708	173
69.04193835	188
69.05864962	163
69.07536089	164
69.09207216	179
69.10878343	185
69.1254947	198
69.14220597	192
69.15891724	190
69.17562851	173
69.19233977	195
69.20905104	200
69.22576231	201
69.24247358	156
69.25918485	182
69.27589612	176
69.29260739	192
69.30931866	168
69.32602993	195
69.3427412	208
69.35945246	185
69.37616373	170
69.392875	176
69.40958627	188
69.42629754	188
69.44300881	177
69.45972008	184
69.47643135	193
69.49314262	174
69.50985388	198
69.52656515	194
69.54327642	170
69.55998769	167
69.57669896	184
69.59341023	178
69.6101215	176
69.62683277	154
69.64354404	175
69.66025531	176
69.67696657	171
69.69367784	210
69.71038911	178
69.72710038	188
69.74381165	183
69.76052292	163
69.77723419	204
69.79394546	182
69.81065673	192
69.827368	189
69.84407926	193
69.86079053	204
69.8775018	223
69.89421307	204
69.91092434	190
69.92763561	190
69.94434688	189
69.96105815	188
69.97776942	174
69.99448069	192
70.01119195	205
70.02790322	179
70.04461449	204
70.06132576	210
70.07803703	233
70.0947483	209
70.11145957	184
70.12817084	199
70.14488211	201
70.16159338	205
70.17830464	206
70.19501591	213
70.21172718	206
70.22843845	212
70.24514972	217
70.26186099	253
70.27857226	205
70.29528353	243
70.3119948	228
70.32870606	262
70.34541733	253
70.3621286	289
70.37883987	288
70.39555114	271
70.41226241	299
70.42897368	289
70.44568495	340
70.46239622	355
70.47910749	385
70.49581875	381
70.51253002	391
70.52924129	450
70.54595256	487
70.56266383	553
70.5793751	731
70.59608637	938
70.61279764	1404
70.62950891	2128
70.64622018	3118
70.66293144	4187
70.67964271	5396
70.69635398	5937
70.71306525	5801
70.72977652	4973
70.74648779	3635
70.76319906	2311
70.77991033	1583
70.7966216	1261
70.81333287	1207
70.83004413	1535
70.8467554	1910
70.86346667	2391
70.88017794	2792
70.89688921	3026
70.91360048	2912
70.93031175	2558
70.94702302	1889
70.96373429	1144
70.98044555	844
70.99715682	606
71.01386809	462
71.03057936	390
71.04729063	331
71.0640019	358
71.08071317	321
71.09742444	296
71.11413571	294
71.13084698	264
71.14755824	269
71.16426951	278
71.18098078	277
71.19769205	285
71.21440332	311
71.23111459	338
71.24782586	259
71.26453713	300
71.2812484	252
71.29795967	268
71.31467093	229
71.3313822	228
71.34809347	231
71.36480474	244
71.38151601	220
71.39822728	219
71.41493855	243
71.43164982	239
71.44836109	222
71.46507236	259
71.48178362	236
71.49849489	213
71.51520616	199
71.53191743	171
71.5486287	182
71.56533997	190
71.58205124	197
71.59876251	220
71.61547378	219
71.63218505	214
71.64889631	198
71.66560758	212
71.68231885	195
71.69903012	213
71.71574139	199
71.73245266	203
71.74916393	187
71.7658752	165
71.78258647	184
71.79929773	205
71.816009	210
71.83272027	198
71.84943154	198
71.86614281	188
71.88285408	183
71.89956535	189
71.91627662	187
71.93298789	182
71.94969916	167
71.96641042	189
71.98312169	177
71.99983296	194
72.01654423	187
72.0332555	185
72.04996677	191
72.06667804	187
72.08338931	182
72.10010058	208
72.11681185	209
72.13352311	171
72.15023438	198
72.16694565	182
72.18365692	187
72.20036819	188
72.21707946	192
72.23379073	184
72.250502	171
72.26721327	191
72.28392454	159
72.3006358	178
72.31734707	185
72.33405834	212
72.35076961	197
72.36748088	183
72.38419215	189
72.40090342	172
72.41761469	187
72.43432596	199
72.45103723	193
72.46774849	170
72.48445976	180
72.50117103	158
72.5178823	182
72.53459357	177
72.55130484	190
72.56801611	155
72.58472738	177
72.60143865	161
72.61814991	156
72.63486118	188
72.65157245	158
72.66828372	191
72.68499499	191
72.70170626	175
72.71841753	185
72.7351288	176
72.75184007	203
72.76855134	174
72.7852626	192
72.80197387	206
72.81868514	201
72.83539641	173
72.85210768	162
72.86881895	178
72.88553022	167
72.90224149	190
72.91895276	192
72.93566403	174
72.95237529	189
72.96908656	208
72.98579783	168
73.0025091	192
73.01922037	165
73.03593164	169
73.05264291	202
73.06935418	177
73.08606545	157
73.10277672	183
73.11948798	194
73.13619925	182
73.15291052	171
73.16962179	194
73.18633306	170
73.20304433	163
73.2197556	179
73.23646687	177
73.25317814	198
73.2698894	177
73.28660067	194
73.30331194	194
73.32002321	162
73.33673448	191
73.35344575	173
73.37015702	164
73.38686829	170
73.40357956	173
73.42029083	168
73.43700209	201
73.45371336	206
73.47042463	176
73.4871359	177
73.50384717	185
73.52055844	206
73.53726971	170
73.55398098	164
73.57069225	193
73.58740352	179
73.60411478	182
73.62082605	185
73.63753732	168
73.65424859	179
73.67095986	182
73.68767113	186
73.7043824	168
73.72109367	189
73.73780494	183
73.75451621	197
73.77122747	179
73.78793874	161
73.80465001	183
73.82136128	217
73.83807255	157
73.85478382	192
73.87149509	202
73.88820636	194
73.90491763	171
73.9216289	177
73.93834016	195
73.95505143	189
73.9717627	170
73.98847397	170
74.00518524	207
74.02189651	192
74.03860778	184
74.05531905	187
74.07203032	168
74.08874158	169
74.10545285	183
74.12216412	219
74.13887539	190
74.15558666	184
74.17229793	176
74.1890092	177
74.20572047	205
74.22243174	174
74.23914301	176
74.25585427	180
74.27256554	187
74.28927681	195
74.30598808	184
74.32269935	209
74.33941062	188
74.35612189	180
74.37283316	205
74.38954443	194
74.4062557	201
74.42296696	186
74.43967823	203
74.4563895	194
74.47310077	178
74.48981204	199
74.50652331	184
74.52323458	204
74.53994585	203
74.55665712	194
74.57336839	195
74.59007965	204
74.60679092	217
74.62350219	223
74.64021346	200
74.65692473	192
74.673636	179
74.69034727	222
74.70705854	221
74.72376981	228
74.74048107	204
74.75719234	232
74.77390361	229
74.79061488	223
74.80732615	215
74.82403742	222
74.84074869	245
74.85745996	219
74.87417123	245
74.8908825	241
74.90759376	245
74.92430503	204
74.9410163	222
74.95772757	250
74.97443884	252
74.99115011	224
75.00786138	260
75.02457265	281
75.04128392	266
75.05799519	262
75.07470645	283
75.09141772	289
75.10812899	300
75.12484026	278
75.14155153	292
75.1582628	283
75.17497407	334
75.19168534	289
75.20839661	277
75.22510788	299
75.24181914	313
75.25853041	307
75.27524168	326
75.29195295	336
75.30866422	322
75.32537549	330
75.34208676	324
75.35879803	306
75.3755093	311
75.39222057	313
75.40893183	304
75.4256431	262
75.44235437	281
75.45906564	301
75.47577691	330
75.49248818	292
75.50919945	278
75.52591072	291
75.54262199	265
75.55933325	246
75.57604452	268
75.59275579	269
75.60946706	270
75.62617833	261
75.6428896	258
75.65960087	268
75.67631214	249
75.69302341	227
75.70973468	233
75.72644594	245
75.74315721	225
75.75986848	229
75.77657975	218
75.79329102	212
75.81000229	201
75.82671356	215
75.84342483	207
75.8601361	224
75.87684737	189
75.89355863	213
75.9102699	187
75.92698117	202
75.94369244	213
75.96040371	195
75.97711498	189
75.99382625	200
76.01053752	197
76.02724879	202
76.04396006	193
76.06067132	206
76.07738259	177
76.09409386	204
76.11080513	193
76.1275164	197
76.14422767	208
76.16093894	212
76.17765021	185
76.19436148	208
76.21107275	204
76.22778401	172
76.24449528	197
76.26120655	178
76.27791782	159
76.29462909	193
76.31134036	207
76.32805163	175
76.3447629	175
76.36147417	178
76.37818543	173
76.3948967	192
76.41160797	176
76.42831924	195
76.44503051	183
76.46174178	208
76.47845305	200
76.49516432	170
76.51187559	167
76.52858686	172
76.54529812	193
76.56200939	179
76.57872066	159
76.59543193	163
76.6121432	176
76.62885447	160
76.64556574	190
76.66227701	179
76.67898828	191
76.69569955	158
76.71241081	177
76.72912208	170
76.74583335	192
76.76254462	179
76.77925589	207
76.79596716	149
76.81267843	174
76.8293897	167
76.84610097	182
76.86281224	179
76.8795235	169
76.89623477	206
76.91294604	156
76.92965731	171
76.94636858	186
76.96307985	175
76.97979112	176
76.99650239	163
77.01321366	179
77.02992492	149
77.04663619	159
77.06334746	164
77.08005873	182
77.09677	172
77.11348127	144
77.13019254	173
77.14690381	159
77.16361508	159
77.18032635	171
77.19703761	185
77.21374888	171
77.23046015	159
77.24717142	178
77.26388269	168
77.28059396	170
77.29730523	204
77.3140165	190
77.33072777	177
77.34743904	180
77.3641503	161
77.38086157	174
77.39757284	180
77.41428411	184
77.43099538	189
77.44770665	180
77.46441792	195
77.48112919	203
77.49784046	218
77.51455173	277
77.53126299	292
77.54797426	310
77.56468553	356
77.5813968	464
77.59810807	583
77.61481934	666
77.63153061	799
77.64824188	753
77.66495315	748
77.68166442	632
77.69837568	614
77.71508695	485
77.73179822	368
77.74850949	309
77.76522076	321
77.78193203	331
77.7986433	330
77.81535457	342
77.83206584	432
77.8487771	420
77.86548837	448
77.88219964	455
77.89891091	437
77.91562218	387
77.93233345	394
77.94904472	312
77.96575599	220
77.98246726	218
77.99917853	190
78.01588979	187
78.03260106	185
78.04931233	225
78.0660236	192
78.08273487	180
78.09944614	193
78.11615741	163
78.13286868	157
78.14957995	164
78.16629122	158
78.18300248	178
78.19971375	169
78.21642502	168
78.23313629	164
78.24984756	175
78.26655883	158
78.2832701	137
78.29998137	178
78.31669264	172
78.33340391	152
78.35011517	141
78.36682644	169
78.38353771	180
78.40024898	165
78.41696025	168
78.43367152	157
78.45038279	188
78.46709406	173
78.48380533	155
78.5005166	167
78.51722786	177
78.53393913	171
78.5506504	182
78.56736167	163
78.58407294	145
78.60078421	177
78.61749548	175
78.63420675	165
78.65091802	168
78.66762928	163
78.68434055	150
78.70105182	160
78.71776309	174
78.73447436	164
78.75118563	183
78.7678969	171
78.78460817	168
78.80131944	145
78.81803071	171
78.83474197	150
78.85145324	152
78.86816451	139
78.88487578	167
78.90158705	174
78.91829832	173
78.93500959	188
78.95172086	171
78.96843213	189
78.9851434	146
79.00185466	161
79.01856593	185
79.0352772	158
79.05198847	148
79.06869974	156
79.08541101	165
79.10212228	172
79.11883355	155
79.13554482	161
79.15225609	182
79.16896735	148
79.18567862	163
79.20238989	170
79.21910116	156
79.23581243	158
79.2525237	170
79.26923497	165
79.28594624	179
79.30265751	172
79.31936877	124
79.33608004	155
79.35279131	177
79.36950258	147
79.38621385	163
79.40292512	152
79.41963639	174
79.43634766	157
79.45305893	174
79.4697702	160
79.48648146	153
79.50319273	162
79.519904	172
79.53661527	157
79.55332654	141
79.57003781	195
79.58674908	139
79.60346035	162
79.62017162	152
79.63688289	162
79.65359415	180
79.67030542	164
79.68701669	169
79.70372796	143
79.72043923	131
79.7371505	172
79.75386177	145
79.77057304	144
79.78728431	155
79.80399558	167
79.82070684	155
79.83741811	162
79.85412938	156
79.87084065	154
79.88755192	147
79.90426319	203
79.92097446	156
79.93768573	183
79.954397	150
79.97110827	145
79.98781953	149
80.0045308	183
80.02124207	172
80.03795334	173
80.05466461	195
80.07137588	171
80.08808715	150
80.10479842	157
80.12150969	148
80.13822095	132
80.15493222	157
80.17164349	129
80.18835476	164
80.20506603	153
80.2217773	146
80.23848857	159
80.25519984	160
80.27191111	156
80.28862238	149
80.30533364	176
80.32204491	170
80.33875618	173
80.35546745	173
80.37217872	141
80.38888999	160
80.40560126	141
80.42231253	156
80.4390238	156
80.45573507	169
80.47244633	169
80.4891576	158
80.50586887	153
80.52258014	164
80.53929141	162
80.55600268	148
80.57271395	154
80.58942522	160
80.60613649	143
80.62284776	153
80.63955902	133
80.65627029	168
80.67298156	174
80.68969283	171
80.7064041	175
80.72311537	173
80.73982664	152
80.75653791	167
80.77324918	130
80.78996044	131
80.80667171	138
80.82338298	164
80.84009425	162
80.85680552	164
80.87351679	142
80.89022806	167
80.90693933	170
80.9236506	122
80.94036187	143
80.95707313	164
80.9737844	146
80.99049567	143
81.00720694	158
81.02391821	179
81.04062948	156
81.05734075	150
81.07405202	146
81.09076329	159
81.10747456	168
81.12418582	159
81.14089709	150
81.15760836	144
81.17431963	162
81.1910309	142
81.20774217	141
81.22445344	183
81.24116471	176
81.25787598	174
81.27458725	162
81.29129851	162
81.30800978	163
81.32472105	153
81.34143232	141
81.35814359	162
81.37485486	146
81.39156613	167
81.4082774	193
81.42498867	164
81.44169994	157
81.4584112	160
81.47512247	161
81.49183374	150
81.50854501	171
81.52525628	161
81.54196755	173
81.55867882	145
81.57539009	180
81.59210136	150
81.60881262	156
81.62552389	163
81.64223516	200
81.65894643	172
81.6756577	177
81.69236897	159
81.70908024	162
81.72579151	172
81.74250278	155
81.75921405	160
81.77592531	168
81.79263658	183
81.80934785	174
81.82605912	188
81.84277039	170
81.85948166	140
81.87619293	178
81.8929042	179
81.90961547	178
81.92632674	168
81.943038	182
81.95974927	180
81.97646054	197
81.99317181	183
82.00988308	190
82.02659435	189
82.04330562	168
82.06001689	194
82.07672816	172
82.09343943	202
82.11015069	206
82.12686196	176
82.14357323	197
82.1602845	209
82.17699577	209
82.19370704	230
82.21041831	177
82.22712958	213
82.24384085	231
82.26055212	202
82.27726338	216
82.29397465	229
82.31068592	237
82.32739719	264
82.34410846	204
82.36081973	228
82.377531	247
82.39424227	213
82.41095354	218
82.4276648	268
82.44437607	228
82.46108734	258
82.47779861	255
82.49450988	267
82.51122115	241
82.52793242	258
82.54464369	244
82.56135496	286
82.57806623	293
82.59477749	316
82.61148876	422
82.62820003	461
82.6449113	550
82.66162257	588
82.67833384	576
82.69504511	530
82.71175638	471
82.72846765	357
82.74517892	319
82.76189018	289
82.77860145	284
82.79531272	264
82.81202399	289
82.82873526	282
82.84544653	303
82.8621578	343
82.87886907	366
82.89558034	372
82.91229161	386
82.92900287	389
82.94571414	353
82.96242541	311
82.97913668	284
82.99584795	260
83.01255922	236
83.02927049	208
83.04598176	230
83.06269303	230
83.07940429	219
83.09611556	202
83.11282683	214
83.1295381	175
83.14624937	193
83.16296064	203
83.17967191	202
83.19638318	168
83.21309445	191
83.22980572	182
83.24651698	191
83.26322825	201
83.27993952	188
83.29665079	162
83.31336206	171
83.33007333	172
83.3467846	174
83.36349587	206
83.38020714	179
83.39691841	153
83.41362967	185
83.43034094	171
83.44705221	167
83.46376348	175
83.48047475	165
83.49718602	194
83.51389729	160
83.53060856	116
83.54731983	186
83.5640311	173
83.58074236	157
83.59745363	167
83.6141649	175
83.63087617	186
83.64758744	159
83.66429871	159
83.68100998	143
83.69772125	169
83.71443252	179
83.73114379	157
83.74785505	161
83.76456632	161
83.78127759	159
83.79798886	176
83.81470013	158
83.8314114	147
83.84812267	160
83.86483394	157
83.88154521	171
83.89825647	148
83.91496774	176
83.93167901	163
83.94839028	142
83.96510155	143
83.98181282	158
83.99852409	154
84.01523536	163
84.03194663	149
84.0486579	172
84.06536916	153
84.08208043	142
84.0987917	155
84.11550297	134
84.13221424	156
84.14892551	147
84.16563678	158
84.18234805	167
84.19905932	140
84.21577059	130
84.23248185	168
84.24919312	143
84.26590439	153
84.28261566	159
84.29932693	156
84.3160382	172
84.33274947	152
84.34946074	131
84.36617201	160
84.38288328	175
84.39959454	156
84.41630581	147
84.43301708	142
84.44972835	135
84.46643962	159
84.48315089	128
84.49986216	147
84.51657343	155
84.5332847	169
84.54999596	149
84.56670723	164
84.5834185	146
84.60012977	171
84.61684104	140
84.63355231	158
84.65026358	127
84.66697485	148
84.68368612	162
84.70039739	130
84.71710865	161
84.73381992	162
84.75053119	150
84.76724246	172
84.78395373	149
84.800665	129
84.81737627	140
84.83408754	130
84.85079881	120
84.86751008	156
84.88422134	143
84.90093261	150
84.91764388	157
84.93435515	137
84.95106642	160
84.96777769	137
84.98448896	140
85.00120023	156
85.0179115	163
85.03462277	152
85.05133403	149
85.0680453	141
85.08475657	179
85.10146784	135
85.11817911	149
85.13489038	128
85.15160165	145
85.16831292	131
85.18502419	148
85.20173546	158
85.21844672	183
85.23515799	134
85.25186926	143
85.26858053	148
85.2852918	152
85.30200307	132
85.31871434	156
85.33542561	141
85.35213688	173
85.36884814	161
85.38555941	131
85.40227068	158
85.41898195	156
85.43569322	147
85.45240449	129
85.46911576	160
85.48582703	156
85.5025383	161
85.51924957	191
85.53596083	150
85.5526721	142
85.56938337	142
85.58609464	150
85.60280591	147
85.61951718	131
85.63622845	137
85.65293972	163
85.66965099	152
85.68636226	146
85.70307352	159
85.71978479	168
85.73649606	137
85.75320733	131
85.7699186	155
85.78662987	150
85.80334114	143
85.82005241	142
85.83676368	149
85.85347495	158
85.87018621	140
85.88689748	153
85.90360875	152
85.92032002	145
85.93703129	157
85.95374256	141
85.97045383	134
85.9871651	144
86.00387637	162
86.02058764	158
86.0372989	145
86.05401017	153
86.07072144	135
86.08743271	158
86.10414398	135
86.12085525	148
86.13756652	135
86.15427779	153
86.17098906	150
86.18770032	147
86.20441159	123
86.22112286	126
86.23783413	154
86.2545454	168
86.27125667	153
86.28796794	156
86.30467921	178
86.32139048	135
86.33810175	152
86.35481301	149
86.37152428	143
86.38823555	132
86.40494682	163
86.42165809	144
86.43836936	160
86.45508063	155
86.4717919	150
86.48850317	140
86.50521444	135
86.5219257	119
86.53863697	156
86.55534824	171
86.57205951	138
86.58877078	147
86.60548205	147
86.62219332	152
86.63890459	154
86.65561586	144
86.67232713	163
86.68903839	152
86.70574966	145
86.72246093	172
86.7391722	140
86.75588347	142
86.77259474	172
86.78930601	137
86.80601728	152
86.82272855	138
86.83943981	142
86.85615108	178
86.87286235	150
86.88957362	156
86.90628489	149
86.92299616	143
86.93970743	179
86.9564187	145
86.97312997	155
86.98984124	158
87.0065525	154
87.02326377	168
87.03997504	157
87.05668631	180
87.07339758	207
87.09010885	247
87.10682012	238
87.12353139	274
87.14024266	241
87.15695393	187
87.17366519	187
87.19037646	172
87.20708773	186
87.223799	188
87.24051027	171
87.25722154	161
87.27393281	178
87.29064408	147
87.30735535	177
87.32406662	188
87.34077788	182
87.35748915	186
87.37420042	219
87.39091169	179
87.40762296	210
87.42433423	184
87.4410455	172
87.45775677	143
87.47446804	152
87.49117931	141
87.50789057	170
87.52460184	131
87.54131311	163
87.55802438	156
87.57473565	138
87.59144692	127
87.60815819	125
87.62486946	157
87.64158073	126
87.65829199	171
87.67500326	138
87.69171453	140
87.7084258	147
87.72513707	148
87.74184834	112
87.75855961	156
87.77527088	155
87.79198215	129
87.80869342	140
87.82540468	122
87.84211595	148
87.85882722	154
87.87553849	132
87.89224976	143
87.90896103	171
87.9256723	119
87.94238357	157
87.95909484	145
87.97580611	131
87.99251737	142
88.00922864	144
88.02593991	150
88.04265118	152
88.05936245	163
88.07607372	135
88.09278499	120
88.10949626	148
88.12620753	131
88.1429188	127
88.15963006	137
88.17634133	140
88.1930526	144
88.20976387	160
88.22647514	154
88.24318641	145
88.25989768	152
88.27660895	142
88.29332022	155
88.31003148	132
88.32674275	155
88.34345402	143
88.36016529	138
88.37687656	152
88.39358783	143
88.4102991	188
88.42701037	120
88.44372164	148
88.46043291	135
88.47714417	135
88.49385544	159
88.51056671	142
88.52727798	160
88.54398925	150
88.56070052	175
88.57741179	173
88.59412306	149
88.61083433	137
88.6275456	142
88.64425686	143
88.66096813	140
88.6776794	147
88.69439067	162
88.71110194	157
88.72781321	138
88.74452448	143
88.76123575	139
88.77794702	148
88.79465829	152
88.81136955	161
88.82808082	125
88.84479209	157
88.86150336	145
88.87821463	137
88.8949259	137
88.91163717	145
88.92834844	147
88.94505971	167
88.96177098	150
88.97848224	157
88.99519351	158
89.01190478	149
89.02861605	128
89.04532732	154
89.06203859	156
89.07874986	148
89.09546113	150
89.1121724	160
89.12888366	128
89.14559493	145
89.1623062	129
89.17901747	140
89.19572874	127
89.21244001	134
89.22915128	123
89.24586255	148
89.26257382	134
89.27928509	148
89.29599635	155
89.31270762	133
89.32941889	153
89.34613016	148
89.36284143	122
89.3795527	131
89.39626397	133
89.41297524	132
89.42968651	152
89.44639778	135
89.46310904	164
89.47982031	140
89.49653158	126
89.51324285	149
89.52995412	140
89.54666539	144
89.56337666	142
89.58008793	144
89.5967992	159
89.61351047	125
89.63022173	165
89.646933	152
89.66364427	142
89.68035554	156
89.69706681	156
89.71377808	145
89.73048935	133
89.74720062	155
89.76391189	132
89.78062316	146
89.79733442	157
89.81404569	165
89.83075696	148
89.84746823	137
89.8641795	154
89.88089077	152
89.89760204	162
89.91431331	158
89.93102458	146
89.94773584	168
89.96444711	120
89.98115838	170
89.99786965	162
90.01458092	156
90.03129219	137
90.04800346	179
90.06471473	150
90.081426	163
90.09813727	147
90.11484853	161
90.1315598	153
90.14827107	155
90.16498234	193
90.18169361	190
90.19840488	194
90.21511615	189
90.23182742	173
90.24853869	189
90.26524996	194
90.28196122	190
90.29867249	183
90.31538376	209
90.33209503	235
90.3488063	239
90.36551757	262
90.38222884	313
90.39894011	399
90.41565138	420
90.43236265	542
90.44907391	748
90.46578518	846
90.48249645	997
90.49920772	1075
90.51591899	1052
90.53263026	953
90.54934153	703
90.5660528	516
90.58276407	390
90.59947533	336
90.6161866	296
90.63289787	283
90.64960914	278
90.66632041	275
90.68303168	316
90.69974295	394
90.71645422	411
90.73316549	528
90.74987676	562
90.76658802	606
90.78329929	618
90.80001056	549
90.81672183	547
90.8334331	455
90.85014437	355
90.86685564	297
90.88356691	280
90.90027818	259
90.91698945	217
90.93370071	203
90.95041198	197
90.96712325	176
90.98383452	187
91.00054579	185
91.01725706	194
91.03396833	170
91.0506796	200
91.06739087	200
91.08410214	179
91.1008134	185
91.11752467	170
91.13423594	177
91.15094721	192
91.16765848	173
91.18436975	156
91.20108102	179
91.21779229	180
91.23450356	163
91.25121483	170
91.26792609	149
91.28463736	168
91.30134863	163
91.3180599	175
91.33477117	168
91.35148244	170
91.36819371	172
91.38490498	159
91.40161625	187
91.41832751	155
91.43503878	156
91.45175005	167
91.46846132	174
91.48517259	172
91.50188386	141
91.51859513	179
91.5353064	158
91.55201767	165
91.56872894	164
91.5854402	161
91.60215147	164
91.61886274	184
91.63557401	154
91.65228528	149
91.66899655	141
91.68570782	162
91.70241909	137
91.71913036	150
91.73584163	180
91.75255289	163
91.76926416	152
91.78597543	171
91.8026867	149
91.81939797	156
91.83610924	139
91.85282051	137
91.86953178	154
91.88624305	141
91.90295432	165
91.91966558	152
91.93637685	160
91.95308812	130
91.96979939	170
91.98651066	132
92.00322193	150
92.0199332	142
92.03664447	149
92.05335574	141
92.07006701	175
92.08677827	155
92.10348954	143
92.12020081	177
92.13691208	146
92.15362335	137
92.17033462	148
92.18704589	145
92.20375716	148
92.22046843	144
92.23717969	158
92.25389096	155
92.27060223	147
92.2873135	164
92.30402477	146
92.32073604	146
92.33744731	168
92.35415858	149
92.37086985	154
92.38758112	120
92.40429238	154
92.42100365	161
92.43771492	134
92.45442619	133
92.47113746	157
92.48784873	141
92.50456	129
92.52127127	154
92.53798254	139
92.55469381	144
92.57140507	138
92.58811634	142
92.60482761	142
92.62153888	143
92.63825015	162
92.65496142	153
92.67167269	131
92.68838396	143
92.70509523	171
92.7218065	163
92.73851776	138
92.75522903	152
92.7719403	138
92.78865157	133
92.80536284	125
92.82207411	150
92.83878538	154
92.85549665	148
92.87220792	155
92.88891918	139
92.90563045	139
92.92234172	138
92.93905299	148
92.95576426	144
92.97247553	129
92.9891868	150
93.00589807	132
93.02260934	127
93.03932061	146
93.05603187	157
93.07274314	138
93.08945441	153
93.10616568	148
93.12287695	140
93.13958822	138
93.15629949	163
93.17301076	132
93.18972203	161
93.2064333	152
93.22314456	135
93.23985583	138
93.2565671	122
93.27327837	132
93.28998964	141
93.30670091	144
93.32341218	144
93.34012345	149
93.35683472	139
93.37354599	119
93.39025725	150
93.40696852	125
93.42367979	145
93.44039106	130
93.45710233	147
93.4738136	135
93.49052487	144
93.50723614	130
93.52394741	154
93.54065868	106
93.55736994	139
93.57408121	147
93.59079248	150
93.60750375	141
93.62421502	137
93.64092629	156
93.65763756	127
93.67434883	140
93.6910601	144
93.70777136	153
93.72448263	143
93.7411939	146
93.75790517	128
93.77461644	122
93.79132771	143
93.80803898	113
93.82475025	149
93.84146152	157
93.85817279	165
93.87488405	145
93.89159532	131
93.90830659	126
93.92501786	144
93.94172913	124
93.9584404	117
93.97515167	172
93.99186294	122
94.00857421	130
94.02528548	138
94.04199674	130
94.05870801	144
94.07541928	148
94.09213055	128
94.10884182	138
94.12555309	132
94.14226436	150
94.15897563	130
94.1756869	131
94.19239817	134
94.20910943	125
94.2258207	153
94.24253197	132
94.25924324	161
94.27595451	139
94.29266578	114
94.30937705	119
94.32608832	132
94.34279959	132
94.35951085	125
94.37622212	152
94.39293339	138
94.40964466	127
94.42635593	147
94.4430672	135
94.45977847	139
94.47648974	158
94.49320101	146
94.50991228	150
94.52662354	139
94.54333481	131
94.56004608	140
94.57675735	132
94.59346862	173
94.61017989	142
94.62689116	130
94.64360243	132
94.6603137	126
94.67702497	145
94.69373623	139
94.7104475	143
94.72715877	144
94.74387004	141
94.76058131	123
94.77729258	134
94.79400385	125
94.81071512	113
94.82742639	146
94.84413766	141
94.86084892	129
94.87756019	116
94.89427146	122
94.91098273	131
94.927694	131
94.94440527	132
94.96111654	131
94.97782781	138
94.99453908	142
95.01125035	131
95.02796161	139
95.04467288	144
95.06138415	141
95.07809542	139
95.09480669	141
95.11151796	149
95.12822923	145
95.1449405	130
95.16165177	161
95.17836303	127
95.1950743	141
95.21178557	139
95.22849684	141
95.24520811	141
95.26191938	153
95.27863065	148
95.29534192	140
95.31205319	162
95.32876446	153
95.34547572	122
95.36218699	156
95.37889826	174
95.39560953	185
95.4123208	183
95.42903207	191
95.44574334	168
95.46245461	175
95.47916588	161
95.49587715	135
95.51258841	137
95.52929968	147
95.54601095	157
95.56272222	158
95.57943349	139
95.59614476	123
95.61285603	139
95.6295673	157
95.64627857	147
95.66298984	142
95.6797011	123
95.69641237	156
95.71312364	149
95.72983491	135
95.74654618	149
95.76325745	171
95.77996872	159
95.79667999	125
95.81339126	140
95.83010253	145
95.84681379	164
95.86352506	150
95.88023633	133
95.8969476	168
95.91365887	138
95.93037014	146
95.94708141	140
95.96379268	145
95.98050395	144
95.99721521	158
96.01392648	131
96.03063775	159
96.04734902	132
96.06406029	116
96.08077156	120
96.09748283	145
96.1141941	111
96.13090537	135
96.14761664	159
96.1643279	125
96.18103917	114
96.19775044	132
96.21446171	142
96.23117298	142
96.24788425	117
96.26459552	125
96.28130679	145
96.29801806	147
96.31472933	138
96.33144059	131
96.34815186	152
96.36486313	140
96.3815744	155
96.39828567	153
96.41499694	152
96.43170821	141
96.44841948	163
96.46513075	135
96.48184202	144
96.49855328	129
96.51526455	129
96.53197582	144
96.54868709	155
96.56539836	114
96.58210963	148
96.5988209	156
96.61553217	175
96.63224344	146
96.6489547	168
96.66566597	143
96.68237724	138
96.69908851	135
96.71579978	143
96.73251105	139
96.74922232	140
96.76593359	146
96.78264486	141
96.79935613	137
96.81606739	135
96.83277866	146
96.84948993	149
96.8662012	138
96.88291247	133
96.89962374	147
96.91633501	144
96.93304628	140
96.94975755	106
96.96646882	158
96.98318008	148
96.99989135	147
97.01660262	132
97.03331389	155
97.05002516	135
97.06673643	133
97.0834477	143
97.10015897	148
97.11687024	158
97.13358151	134
97.15029277	139
97.16700404	142
97.18371531	149
97.20042658	150
97.21713785	134
97.23384912	149
97.25056039	125
97.26727166	147
97.28398293	135
97.3006942	146
97.31740546	139
97.33411673	140
97.350828	146
97.36753927	138
97.38425054	147
97.40096181	156
97.41767308	125
97.43438435	130
97.45109562	148
97.46780688	130
97.48451815	145
97.50122942	162
97.51794069	141
97.53465196	137
97.55136323	114
97.5680745	140
97.58478577	142
97.60149704	146
97.61820831	127
97.63491957	138
97.65163084	138
97.66834211	126
97.68505338	130
97.70176465	149
97.71847592	154
97.73518719	133
97.75189846	146
97.76860973	154
97.785321	141
97.80203226	130
97.81874353	145
97.8354548	139
97.85216607	145
97.86887734	134
97.88558861	128
97.90229988	146
97.91901115	122
97.93572242	147
97.95243369	130
97.96914495	119
97.98585622	143
98.00256749	141
98.01927876	143
98.03599003	137
98.0527013	126
98.06941257	147
98.08612384	143
98.10283511	138
98.11954637	130
98.13625764	132
98.15296891	139
98.16968018	140
98.18639145	141
98.20310272	120
98.21981399	123
98.23652526	133
98.25323653	150
98.2699478	149
98.28665906	144
98.30337033	147
98.3200816	138
98.33679287	133
98.35350414	149
98.37021541	145
98.38692668	118
98.40363795	156
98.42034922	140
98.43706049	143
98.45377175	128
98.47048302	134
98.48719429	146
98.50390556	164
98.52061683	127
98.5373281	155
98.55403937	148
98.57075064	133
98.58746191	153
98.60417318	175
98.62088444	130
98.63759571	154
98.65430698	156
98.67101825	123
98.68772952	134
98.70444079	126
98.72115206	132
98.73786333	152
98.7545746	145
98.77128587	125
98.78799713	127
98.8047084	120
98.82141967	139
98.83813094	133
98.85484221	137
98.87155348	133
98.88826475	135
98.90497602	159
98.92168729	123
98.93839855	133
98.95510982	148
98.97182109	158
98.98853236	144
99.00524363	134
99.0219549	153
99.03866617	158
99.05537744	146
99.07208871	134
99.08879998	146
99.10551124	130
99.12222251	128
99.13893378	171
99.15564505	144
99.17235632	130
99.18906759	158
99.20577886	147
99.22249013	152
99.2392014	137
99.25591267	127
99.27262393	145
99.2893352	156
99.30604647	144
99.32275774	143
99.33946901	124
99.35618028	144
99.37289155	137
99.38960282	147
99.40631409	145
99.42302536	149
99.43973662	131
99.45644789	145
99.47315916	146
99.48987043	148
99.5065817	149
99.52329297	165
99.54000424	129
99.55671551	147
99.57342678	141
99.59013805	124
99.60684931	133
99.62356058	124
99.64027185	132
99.65698312	143
99.67369439	134
99.69040566	147
99.70711693	143
99.7238282	150
99.74053947	157
99.75725073	124
99.773962	150
99.79067327	133
99.80738454	138
99.82409581	137
99.84080708	120
99.85751835	112
99.87422962	128
99.89094089	140
99.90765216	134
99.92436342	118
99.94107469	153
99.95778596	139
99.97449723	134
99.9912085	146