5.00435563	267
5.021066899	279
5.037778168	244
5.054489437	264
5.071200706	227
5.087911975	285
5.104623244	241
5.121334513	224
5.138045782	258
5.154757051	232
5.17146832	221
5.188179589	256
5.204890858	206
5.221602127	225
5.238313396	216
5.255024665	266
5.271735934	198
5.288447203	237
5.305158472	264
5.321869741	228
5.33858101	227
5.355292279	229
5.372003548	229
5.388714816	244
5.405426085	228
5.422137354	238
5.438848623	237
5.455559892	227
5.472271161	231
5.48898243	223
5.505693699	238
5.522404968	209
5.539116237	205
5.555827506	214
5.572538775	207
5.589250044	216
5.605961313	195
5.622672582	240
5.639383851	240
5.65609512	238
5.672806389	193
5.689517658	207
5.706228927	203
5.722940196	224
5.739651465	198
5.756362734	189
5.773074003	232
5.789785272	194
5.806496541	192
5.82320781	216
5.839919079	225
5.856630348	199
5.873341617	227
5.890052886	222
5.906764155	206
5.923475424	237
5.940186693	185
5.956897962	212
5.973609231	218
5.9903205	227
6.007031769	252
6.023743038	222
6.040454307	231
6.057165576	227
6.073876845	245
6.090588114	191
6.107299383	220
6.124010652	219
6.14072192	214
6.157433189	202
6.174144458	198
6.190855727	203
6.207566996	188
6.224278265	230
6.240989534	183
6.257700803	217
6.274412072	205
6.291123341	191
6.30783461	220
6.324545879	200
6.341257148	206
6.357968417	213
6.374679686	192
6.391390955	185
6.408102224	209
6.424813493	200
6.441524762	213
6.458236031	230
6.4749473	197
6.491658569	188
6.508369838	209
6.525081107	186
6.541792376	188
6.558503645	177
6.575214914	210
6.591926183	192
6.608637452	199
6.625348721	205
6.64205999	193
6.658771259	209
6.675482528	185
6.692193797	201
6.708905066	191
6.725616335	176
6.742327604	192
6.759038873	209
6.775750142	204
6.792461411	185
6.80917268	189
6.825883949	190
6.842595218	195
6.859306487	199
6.876017756	206
6.892729024	209
6.909440293	191
6.926151562	215
6.942862831	187
6.9595741	183
6.976285369	189
6.992996638	193
7.009707907	207
7.026419176	199
7.043130445	187
7.059841714	190
7.076552983	182
7.093264252	183
7.109975521	186
7.12668679	185
7.143398059	202
7.160109328	167
7.176820597	179
7.193531866	197
7.210243135	192
7.226954404	182
7.243665673	170
7.260376942	187
7.277088211	164
7.29379948	169
7.310510749	177
7.327222018	192
7.343933287	183
7.360644556	209
7.377355825	189
7.394067094	199
7.410778363	184
7.427489632	164
7.444200901	177
7.46091217	190
7.477623439	178
7.494334708	180
7.511045977	156
7.527757246	172
7.544468515	171
7.561179784	176
7.577891053	168
7.594602322	173
7.611313591	184
7.62802486	204
7.644736128	156
7.661447397	186
7.678158666	179
7.694869935	195
7.711581204	173
7.728292473	186
7.745003742	164
7.761715011	182
7.77842628	163
7.795137549	171
7.811848818	169
7.828560087	156
7.845271356	175
7.861982625	165
7.878693894	161
7.895405163	177
7.912116432	194
7.928827701	175
7.94553897	185
7.962250239	180
7.978961508	158
7.995672777	184
8.012384046	165
8.029095315	162
8.045806584	168
8.062517853	179
8.079229122	167
8.095940391	175
8.11265166	173
8.129362929	157
8.146074198	173
8.162785467	182
8.179496736	164
8.196208005	179
8.212919274	190
8.229630543	206
8.246341812	202
8.263053081	149
8.27976435	199
8.296475619	167
8.313186888	176
8.329898157	195
8.346609426	157
8.363320695	173
8.380031964	155
8.396743233	197
8.413454501	205
8.43016577	199
8.446877039	224
8.463588308	201
8.480299577	158
8.497010846	194
8.513722115	222
8.530433384	230
8.547144653	193
8.563855922	178
8.580567191	191
8.59727846	200
8.613989729	215
8.630700998	213
8.647412267	209
8.664123536	194
8.680834805	213
8.697546074	219
8.714257343	221
8.730968612	207
8.747679881	230
8.76439115	213
8.781102419	230
8.797813688	239
8.814524957	218
8.831236226	231
8.847947495	218
8.864658764	230
8.881370033	207
8.898081302	230
8.914792571	247
8.93150384	223
8.948215109	208
8.964926378	247
8.981637647	228
8.998348916	240
9.015060185	230
9.031771454	207
9.048482723	195
9.065193992	231
9.081905261	199
9.09861653	195
9.115327799	213
9.132039068	195
9.148750337	207
9.165461605	195
9.182172874	212
9.198884143	179
9.215595412	179
9.232306681	200
9.24901795	184
9.265729219	158
9.282440488	153
9.299151757	195
9.315863026	164
9.332574295	164
9.349285564	169
9.365996833	167
9.382708102	170
9.399419371	185
9.41613064	178
9.432841909	171
9.449553178	194
9.466264447	168
9.482975716	165
9.499686985	150
9.516398254	173
9.533109523	167
9.549820792	160
9.566532061	154
9.58324333	155
9.599954599	171
9.616665868	164
9.633377137	156
9.650088406	141
9.666799675	159
9.683510944	177
9.700222213	160
9.716933482	157
9.733644751	142
9.75035602	143
9.767067289	146
9.783778558	155
9.800489827	139
9.817201096	156
9.833912365	148
9.850623634	147
9.867334903	133
9.884046172	158
9.900757441	150
9.917468709	168
9.934179978	137
9.950891247	158
9.967602516	147
9.984313785	157
10.00102505	147
10.01773632	147
10.03444759	126
10.05115886	150
10.06787013	153
10.0845814	150
10.10129267	142
10.11800394	142
10.13471521	152
10.15142648	144
10.16813774	170
10.18484901	141
10.20156028	139
10.21827155	159
10.23498282	167
10.25169409	172
10.26840536	125
10.28511663	157
10.3018279	146
10.31853917	140
10.33525043	133
10.3519617	156
10.36867297	140
10.38538424	158
10.40209551	132
10.41880678	133
10.43551805	143
10.45222932	147
10.46894059	142
10.48565186	147
10.50236312	135
10.51907439	155
10.53578566	126
10.55249693	159
10.5692082	130
10.58591947	147
10.60263074	155
10.61934201	132
10.63605328	152
10.65276455	147
10.66947581	130
10.68618708	114
10.70289835	133
10.71960962	159
10.73632089	137
10.75303216	133
10.76974343	128
10.7864547	171
10.80316597	131
10.81987723	152
10.8365885	164
10.85329977	157
10.87001104	129
10.88672231	119
10.90343358	149
10.92014485	134
10.93685612	113
10.95356739	132
10.97027866	137
10.98698992	122
11.00370119	131
11.02041246	156
11.03712373	137
11.053835	146
11.07054627	127
11.08725754	104
11.10396881	160
11.12068008	126
11.13739135	119
11.15410261	140
11.17081388	124
11.18752515	131
11.20423642	140
11.22094769	132
11.23765896	128
11.25437023	135
11.2710815	141
11.28779277	146
11.30450404	128
11.3212153	135
11.33792657	127
11.35463784	126
11.37134911	122
11.38806038	148
11.40477165	146
11.42148292	152
11.43819419	145
11.45490546	141
11.47161672	141
11.48832799	158
11.50503926	132
11.52175053	120
11.5384618	133
11.55517307	150
11.57188434	128
11.58859561	147
11.60530688	135
11.62201815	133
11.63872941	130
11.65544068	138
11.67215195	114
11.68886322	109
11.70557449	128
11.72228576	117
11.73899703	139
11.7557083	131
11.77241957	134
11.78913084	119
11.8058421	122
11.82255337	133
11.83926464	109
11.85597591	126
11.87268718	143
11.88939845	135
11.90610972	124
11.92282099	130
11.93953226	149
11.95624353	132
11.97295479	143
11.98966606	126
12.00637733	138
12.0230886	132
12.03979987	142
12.05651114	133
12.07322241	116
12.08993368	147
12.10664495	140
12.12335622	126
12.14006748	122
12.15677875	128
12.17349002	142
12.19020129	144
12.20691256	135
12.22362383	144
12.2403351	153
12.25704637	133
12.27375764	124
12.2904689	134
12.30718017	142
12.32389144	150
12.34060271	134
12.35731398	129
12.37402525	138
12.39073652	124
12.40744779	139
12.42415906	131
12.44087033	142
12.45758159	128
12.47429286	145
12.49100413	141
12.5077154	114
12.52442667	144
12.54113794	145
12.55784921	146
12.57456048	143
12.59127175	141
12.60798302	127
12.62469428	118
12.64140555	109
12.65811682	108
12.67482809	139
12.69153936	149
12.70825063	134
12.7249619	145
12.74167317	111
12.75838444	133
12.77509571	150
12.79180697	145
12.80851824	124
12.82522951	133
12.84194078	106
12.85865205	132
12.87536332	148
12.89207459	145
12.90878586	143
12.92549713	127
12.94220839	126
12.95891966	158
12.97563093	139
12.9923422	145
13.00905347	138
13.02576474	144
13.04247601	135
13.05918728	139
13.07589855	141
13.09260982	130
13.10932108	102
13.12603235	122
13.14274362	119
13.15945489	126
13.17616616	119
13.19287743	135
13.2095887	114
13.22629997	124
13.24301124	123
13.25972251	124
13.27643377	138
13.29314504	130
13.30985631	135
13.32656758	123
13.34327885	130
13.35999012	138
13.37670139	126
13.39341266	130
13.41012393	124
13.4268352	146
13.44354646	124
13.46025773	130
13.476969	126
13.49368027	114
13.51039154	140
13.52710281	124
13.54381408	130
13.56052535	130
13.57723662	138
13.59394789	131
13.61065915	131
13.62737042	135
13.64408169	127
13.66079296	135
13.67750423	133
13.6942155	140
13.71092677	140
13.72763804	152
13.74434931	140
13.76106057	116
13.77777184	137
13.79448311	111
13.81119438	158
13.82790565	143
13.84461692	146
13.86132819	140
13.87803946	119
13.89475073	106
13.911462	125
13.92817326	129
13.94488453	122
13.9615958	128
13.97830707	131
13.99501834	147
14.01172961	118
14.02844088	119
14.04515215	127
14.06186342	114
14.07857469	120
14.09528595	125
14.11199722	131
14.12870849	127
14.14541976	127
14.16213103	130
14.1788423	123
14.19555357	123
14.21226484	122
14.22897611	108
14.24568738	107
14.26239864	115
14.27910991	141
14.29582118	135
14.31253245	143
14.32924372	132
14.34595499	138
14.36266626	133
14.37937753	126
14.3960888	122
14.41280007	132
14.42951133	133
14.4462226	149
14.46293387	125
14.47964514	134
14.49635641	142
14.51306768	109
14.52977895	150
14.54649022	132
14.56320149	111
14.57991275	132
14.59662402	145
14.61333529	139
14.63004656	125
14.64675783	137
14.6634691	131
14.68018037	113
14.69689164	128
14.71360291	133
14.73031418	120
14.74702544	120
14.76373671	114
14.78044798	145
14.79715925	124
14.81387052	120
14.83058179	96
14.84729306	133
14.86400433	129
14.8807156	145
14.89742687	127
14.91413813	128
14.9308494	129
14.94756067	112
14.96427194	117
14.98098321	118
14.99769448	131
15.01440575	141
15.03111702	127
15.04782829	116
15.06453956	138
15.08125082	137
15.09796209	155
15.11467336	94
15.13138463	123
15.1480959	150
15.16480717	128
15.18151844	127
15.19822971	131
15.21494098	146
15.23165224	129
15.24836351	122
15.26507478	133
15.28178605	126
15.29849732	120
15.31520859	129
15.33191986	162
15.34863113	126
15.3653424	141
15.38205367	113
15.39876493	128
15.4154762	116
15.43218747	113
15.44889874	118
15.46561001	137
15.48232128	111
15.49903255	125
15.51574382	146
15.53245509	132
15.54916636	122
15.56587762	147
15.58258889	125
15.59930016	135
15.61601143	138
15.6327227	122
15.64943397	129
15.66614524	142
15.68285651	125
15.69956778	124
15.71627905	111
15.73299031	123
15.74970158	143
15.76641285	131
15.78312412	137
15.79983539	132
15.81654666	146
15.83325793	104
15.8499692	127
15.86668047	140
15.88339174	130
15.900103	135
15.91681427	127
15.93352554	141
15.95023681	114
15.96694808	131
15.98365935	115
16.00037062	117
16.01708189	132
16.03379316	141
16.05050442	127
16.06721569	137
16.08392696	114
16.10063823	143
16.1173495	133
16.13406077	119
16.15077204	153
16.16748331	149
16.18419458	123
16.20090585	144
16.21761711	133
16.23432838	112
16.25103965	124
16.26775092	149
16.28446219	152
16.30117346	138
16.31788473	116
16.334596	138
16.35130727	116
16.36801854	153
16.3847298	137
16.40144107	140
16.41815234	140
16.43486361	137
16.45157488	116
16.46828615	125
16.48499742	123
16.50170869	158
16.51841996	124
16.53513123	153
16.55184249	122
16.56855376	116
16.58526503	119
16.6019763	120
16.61868757	133
16.63539884	120
16.65211011	129
16.66882138	139
16.68553265	148
16.70224391	174
16.71895518	134
16.73566645	130
16.75237772	130
16.76908899	127
16.78580026	128
16.80251153	132
16.8192228	114
16.83593407	124
16.85264534	133
16.8693566	122
16.88606787	140
16.90277914	149
16.91949041	157
16.93620168	122
16.95291295	138
16.96962422	130
16.98633549	126
17.00304676	140
17.01975803	135
17.03646929	125
17.05318056	129
17.06989183	123
17.0866031	126
17.10331437	149
17.12002564	111
17.13673691	138
17.15344818	143
17.17015945	147
17.18687072	127
17.20358198	149
17.22029325	131
17.23700452	139
17.25371579	110
17.27042706	143
17.28713833	156
17.3038496	148
17.32056087	111
17.33727214	129
17.35398341	113
17.37069467	142
17.38740594	137
17.40411721	123
17.42082848	137
17.43753975	128
17.45425102	118
17.47096229	118
17.48767356	141
17.50438483	140
17.52109609	125
17.53780736	144
17.55451863	131
17.5712299	127
17.58794117	137
17.60465244	117
17.62136371	147
17.63807498	126
17.65478625	127
17.67149752	148
17.68820878	142
17.70492005	132
17.72163132	154
17.73834259	128
17.75505386	114
17.77176513	138
17.7884764	120
17.80518767	129
17.82189894	137
17.83861021	124
17.85532147	93
17.87203274	149
17.88874401	133
17.90545528	124
17.92216655	111
17.93887782	152
17.95558909	129
17.97230036	154
17.98901163	131
18.0057229	117
18.02243416	123
18.03914543	120
18.0558567	114
18.07256797	130
18.08927924	144
18.10599051	114
18.12270178	115
18.13941305	135
18.15612432	153
18.17283559	139
18.18954685	127
18.20625812	110
18.22296939	122
18.23968066	147
18.25639193	126
18.2731032	140
18.28981447	142
18.30652574	158
18.32323701	132
18.33994827	125
18.35665954	128
18.37337081	125
18.39008208	120
18.40679335	117
18.42350462	131
18.44021589	131
18.45692716	125
18.47363843	142
18.4903497	119
18.50706096	125
18.52377223	133
18.5404835	106
18.55719477	138
18.57390604	118
18.59061731	122
18.60732858	138
18.62403985	124
18.64075112	129
18.65746239	138
18.67417365	120
18.69088492	110
18.70759619	127
18.72430746	127
18.74101873	128
18.75773	126
18.77444127	137
18.79115254	139
18.80786381	118
18.82457508	115
18.84128634	114
18.85799761	125
18.87470888	152
18.89142015	133
18.90813142	147
18.92484269	116
18.94155396	139
18.95826523	150
18.9749765	113
18.99168776	132
19.00839903	126
19.0251103	129
19.04182157	116
19.05853284	128
19.07524411	115
19.09195538	104
19.10866665	119
19.12537792	148
19.14208919	140
19.15880045	130
19.17551172	138
19.19222299	113
19.20893426	148
19.22564553	122
19.2423568	130
19.25906807	133
19.27577934	140
19.29249061	109
19.30920188	114
19.32591314	144
19.34262441	144
19.35933568	131
19.37604695	139
19.39275822	107
19.40946949	114
19.42618076	127
19.44289203	125
19.4596033	135
19.47631457	110
19.49302583	131
19.5097371	147
19.52644837	134
19.54315964	148
19.55987091	117
19.57658218	119
19.59329345	142
19.61000472	123
19.62671599	126
19.64342726	120
19.66013852	144
19.67684979	130
19.69356106	127
19.71027233	125
19.7269836	139
19.74369487	129
19.76040614	120
19.77711741	103
19.79382868	153
19.81053994	119
19.82725121	123
19.84396248	128
19.86067375	122
19.87738502	141
19.89409629	137
19.91080756	115
19.92751883	107
19.9442301	102
19.96094137	128
19.97765263	125
19.9943639	131
20.01107517	143
20.02778644	139
20.04449771	126
20.06120898	118
20.07792025	131
20.09463152	129
20.11134279	133
20.12805406	103
20.14476532	113
20.16147659	138
20.17818786	125
20.19489913	124
20.2116104	142
20.22832167	124
20.24503294	130
20.26174421	145
20.27845548	113
20.29516675	124
20.31187801	132
20.32858928	138
20.34530055	128
20.36201182	145
20.37872309	116
20.39543436	159
20.41214563	127
20.4288569	124
20.44556817	160
20.46227943	132
20.4789907	129
20.49570197	142
20.51241324	129
20.52912451	119
20.54583578	126
20.56254705	107
20.57925832	142
20.59596959	141
20.61268086	124
20.62939212	142
20.64610339	108
20.66281466	122
20.67952593	119
20.6962372	144
20.71294847	128
20.72965974	127
20.74637101	125
20.76308228	147
20.77979355	141
20.79650481	127
20.81321608	142
20.82992735	116
20.84663862	128
20.86334989	137
20.88006116	119
20.89677243	107
20.9134837	116
20.93019497	133
20.94690624	141
20.9636175	133
20.98032877	128
20.99704004	145
21.01375131	124
21.03046258	120
21.04717385	109
21.06388512	127
21.08059639	128
21.09730766	141
21.11401893	122
21.13073019	126
21.14744146	115
21.16415273	138
21.180864	118
21.19757527	123
21.21428654	101
21.23099781	131
21.24770908	142
21.26442035	118
21.28113161	129
21.29784288	132
21.31455415	124
21.33126542	144
21.34797669	125
21.36468796	132
21.38139923	135
21.3981105	142
21.41482177	110
21.43153304	126
21.4482443	117
21.46495557	116
21.48166684	123
21.49837811	119
21.51508938	123
21.53180065	108
21.54851192	130
21.56522319	112
21.58193446	118
21.59864573	123
21.61535699	147
21.63206826	131
21.64877953	124
21.6654908	141
21.68220207	123
21.69891334	137
21.71562461	103
21.73233588	122
21.74904715	137
21.76575842	145
21.78246968	142
21.79918095	113
21.81589222	155
21.83260349	123
21.84931476	126
21.86602603	107
21.8827373	133
21.89944857	116
21.91615984	147
21.93287111	126
21.94958237	132
21.96629364	120
21.98300491	111
21.99971618	124
22.01642745	118
22.03313872	133
22.04984999	123
22.06656126	122
22.08327253	139
22.09998379	139
22.11669506	118
22.13340633	133
22.1501176	135
22.16682887	112
22.18354014	128
22.20025141	126
22.21696268	119
22.23367395	124
22.25038522	108
22.26709648	124
22.28380775	108
22.30051902	114
22.31723029	123
22.33394156	140
22.35065283	123
22.3673641	119
22.38407537	124
22.40078664	109
22.41749791	112
22.43420917	127
22.45092044	118
22.46763171	125
22.48434298	127
22.50105425	135
22.51776552	122
22.53447679	124
22.55118806	139
22.56789933	129
22.5846106	130
22.60132186	132
22.61803313	125
22.6347444	92
22.65145567	150
22.66816694	117
22.68487821	107
22.70158948	124
22.71830075	123
22.73501202	133
22.75172328	122
22.76843455	141
22.78514582	130
22.80185709	114
22.81856836	116
22.83527963	128
22.8519909	111
22.86870217	130
22.88541344	137
22.90212471	135
22.91883597	128
22.93554724	125
22.95225851	124
22.96896978	122
22.98568105	126
23.00239232	123
23.01910359	139
23.03581486	120
23.05252613	145
23.0692374	133
23.08594866	128
23.10265993	119
23.1193712	125
23.13608247	120
23.15279374	138
23.16950501	120
23.18621628	138
23.20292755	113
23.21963882	130
23.23635009	117
23.25306135	144
23.26977262	132
23.28648389	104
23.30319516	143
23.31990643	125
23.3366177	120
23.35332897	98
23.37004024	128
23.38675151	118
23.40346278	114
23.42017404	98
23.43688531	119
23.45359658	115
23.47030785	137
23.48701912	143
23.50373039	101
23.52044166	130
23.53715293	115
23.5538642	122
23.57057546	127
23.58728673	103
23.603998	125
23.62070927	104
23.63742054	144
23.65413181	107
23.67084308	150
23.68755435	122
23.70426562	124
23.72097689	145
23.73768815	118
23.75439942	143
23.77111069	123
23.78782196	122
23.80453323	128
23.8212445	118
23.83795577	137
23.85466704	139
23.87137831	133
23.88808958	123
23.90480084	133
23.92151211	116
23.93822338	130
23.95493465	114
23.97164592	122
23.98835719	133
24.00506846	124
24.02177973	113
24.038491	125
24.05520227	113
24.07191353	119
24.0886248	104
24.10533607	144
24.12204734	122
24.13875861	141
24.15546988	139
24.17218115	109
24.18889242	137
24.20560369	100
24.22231496	115
24.23902622	108
24.25573749	124
24.27244876	132
24.28916003	132
24.3058713	124
24.32258257	134
24.33929384	127
24.35600511	114
24.37271638	131
24.38942764	112
24.40613891	110
24.42285018	109
24.43956145	115
24.45627272	125
24.47298399	132
24.48969526	134
24.50640653	125
24.5231178	126
24.53982907	128
24.55654033	116
24.5732516	112
24.58996287	124
24.60667414	119
24.62338541	122
24.64009668	125
24.65680795	118
24.67351922	129
24.69023049	135
24.70694176	127
24.72365302	118
24.74036429	116
24.75707556	109
24.77378683	119
24.7904981	116
24.80720937	131
24.82392064	106
24.84063191	115
24.85734318	117
24.87405445	128
24.89076571	118
24.90747698	139
24.92418825	134
24.94089952	138
24.95761079	120
24.97432206	130
24.99103333	115
25.0077446	123
25.02445587	108
25.04116713	131
25.0578784	131
25.07458967	126
25.09130094	127
25.10801221	123
25.12472348	135
25.14143475	128
25.15814602	126
25.17485729	110
25.19156856	137
25.20827982	117
25.22499109	118
25.24170236	143
25.25841363	129
25.2751249	152
25.29183617	116
25.30854744	142
25.32525871	103
25.34196998	138
25.35868125	116
25.37539251	120
25.39210378	137
25.40881505	129
25.42552632	138
25.44223759	109
25.45894886	132
25.47566013	126
25.4923714	150
25.50908267	114
25.52579394	139
25.5425052	87
25.55921647	116
25.57592774	122
25.59263901	138
25.60935028	125
25.62606155	122
25.64277282	127
25.65948409	103
25.67619536	130
25.69290663	125
25.70961789	127
25.72632916	128
25.74304043	109
25.7597517	113
25.77646297	146
25.79317424	139
25.80988551	133
25.82659678	127
25.84330805	153
25.86001931	116
25.87673058	127
25.89344185	141
25.91015312	112
25.92686439	129
25.94357566	122
25.96028693	128
25.9769982	137
25.99370947	130
26.01042074	116
26.027132	134
26.04384327	123
26.06055454	116
26.07726581	106
26.09397708	132
26.11068835	135
26.12739962	116
26.14411089	123
26.16082216	123
26.17753343	122
26.19424469	125
26.21095596	124
26.22766723	127
26.2443785	140
26.26108977	130
26.27780104	124
26.29451231	111
26.31122358	132
26.32793485	134
26.34464612	123
26.36135738	122
26.37806865	130
26.39477992	119
26.41149119	112
26.42820246	119
26.44491373	109
26.461625	125
26.47833627	127
26.49504754	107
26.5117588	122
26.52847007	130
26.54518134	137
26.56189261	146
26.57860388	125
26.59531515	126
26.61202642	127
26.62873769	116
26.64544896	123
26.66216023	113
26.67887149	131
26.69558276	117
26.71229403	128
26.7290053	111
26.74571657	120
26.76242784	128
26.77913911	115
26.79585038	140
26.81256165	137
26.82927292	120
26.84598418	124
26.86269545	123
26.87940672	113
26.89611799	138
26.91282926	135
26.92954053	124
26.9462518	146
26.96296307	124
26.97967434	124
26.99638561	134
27.01309687	125
27.02980814	120
27.04651941	103
27.06323068	127
27.07994195	109
27.09665322	123
27.11336449	132
27.13007576	109
27.14678703	127
27.1634983	124
27.18020956	124
27.19692083	141
27.2136321	108
27.23034337	133
27.24705464	107
27.26376591	139
27.28047718	122
27.29718845	118
27.31389972	130
27.33061098	117
27.34732225	137
27.36403352	127
27.38074479	120
27.39745606	134
27.41416733	156
27.4308786	116
27.44758987	106
27.46430114	114
27.48101241	115
27.49772367	144
27.51443494	115
27.53114621	125
27.54785748	137
27.56456875	125
27.58128002	109
27.59799129	98
27.61470256	114
27.63141383	132
27.6481251	122
27.66483636	119
27.68154763	106
27.6982589	127
27.71497017	142
27.73168144	111
27.74839271	125
27.76510398	132
27.78181525	144
27.79852652	142
27.81523779	125
27.83194905	129
27.84866032	115
27.86537159	117
27.88208286	123
27.89879413	109
27.9155054	125
27.93221667	120
27.94892794	107
27.96563921	114
27.98235048	115
27.99906174	124
28.01577301	117
28.03248428	140
28.04919555	122
28.06590682	91
28.08261809	142
28.09932936	130
28.11604063	130
28.1327519	141
28.14946316	118
28.16617443	122
28.1828857	135
28.19959697	125
28.21630824	134
28.23301951	122
28.24973078	120
28.26644205	138
28.28315332	120
28.29986459	119
28.31657585	118
28.33328712	141
28.34999839	108
28.36670966	111
28.38342093	146
28.4001322	140
28.41684347	111
28.43355474	139
28.45026601	125
28.46697728	116
28.48368854	131
28.50039981	115
28.51711108	123
28.53382235	103
28.55053362	108
28.56724489	117
28.58395616	133
28.60066743	146
28.6173787	139
28.63408997	141
28.65080123	131
28.6675125	104
28.68422377	118
28.70093504	129
28.71764631	123
28.73435758	129
28.75106885	114
28.76778012	124
28.78449139	103
28.80120265	133
28.81791392	131
28.83462519	101
28.85133646	131
28.86804773	125
28.884759	119
28.90147027	132
28.91818154	101
28.93489281	120
28.95160408	137
28.96831534	124
28.98502661	117
29.00173788	111
29.01844915	134
29.03516042	117
29.05187169	100
29.06858296	132
29.08529423	120
29.1020055	132
29.11871677	107
29.13542803	113
29.1521393	114
29.16885057	131
29.18556184	99
29.20227311	118
29.21898438	118
29.23569565	119
29.25240692	124
29.26911819	130
29.28582946	147
29.30254072	138
29.31925199	126
29.33596326	115
29.35267453	127
29.3693858	125
29.38609707	127
29.40280834	104
29.41951961	127
29.43623088	132
29.45294215	139
29.46965341	126
29.48636468	133
29.50307595	131
29.51978722	142
29.53649849	125
29.55320976	140
29.56992103	122
29.5866323	117
29.60334357	131
29.62005483	129
29.6367661	112
29.65347737	126
29.67018864	126
29.68689991	122
29.70361118	132
29.72032245	101
29.73703372	124
29.75374499	142
29.77045626	130
29.78716752	141
29.80387879	141
29.82059006	106
29.83730133	102
29.8540126	135
29.87072387	137
29.88743514	124
29.90414641	127
29.92085768	123
29.93756895	141
29.95428021	116
29.97099148	125
29.98770275	155
30.00441402	128
30.02112529	118
30.03783656	127
30.05454783	120
30.0712591	124
30.08797037	119
30.10468164	116
30.1213929	138
30.13810417	122
30.15481544	109
30.17152671	123
30.18823798	126
30.20494925	130
30.22166052	116
30.23837179	129
30.25508306	143
30.27179432	126
30.28850559	103
30.30521686	134
30.32192813	108
30.3386394	106
30.35535067	122
30.37206194	112
30.38877321	120
30.40548448	124
30.42219575	119
30.43890701	134
30.45561828	114
30.47232955	127
30.48904082	114
30.50575209	133
30.52246336	120
30.53917463	137
30.5558859	148
30.57259717	133
30.58930844	122
30.6060197	127
30.62273097	122
30.63944224	134
30.65615351	117
30.67286478	119
30.68957605	124
30.70628732	120
30.72299859	134
30.73970986	126
30.75642113	134
30.77313239	109
30.78984366	129
30.80655493	138
30.8232662	134
30.83997747	113
30.85668874	133
30.87340001	123
30.89011128	130
30.90682255	111
30.92353382	108
30.94024508	114
30.95695635	116
30.97366762	117
30.99037889	115
31.00709016	117
31.02380143	124
31.0405127	130
31.05722397	116
31.07393524	129
31.0906465	144
31.10735777	132
31.12406904	116
31.14078031	122
31.15749158	124
31.17420285	104
31.19091412	130
31.20762539	117
31.22433666	125
31.24104793	139
31.25775919	119
31.27447046	119
31.29118173	122
31.307893	138
31.32460427	125
31.34131554	122
31.35802681	116
31.37473808	127
31.39144935	132
31.40816062	123
31.42487188	95
31.44158315	128
31.45829442	113
31.47500569	123
31.49171696	114
31.50842823	124
31.5251395	132
31.54185077	128
31.55856204	115
31.57527331	129
31.59198457	144
31.60869584	127
31.62540711	140
31.64211838	134
31.65882965	118
31.67554092	134
31.69225219	123
31.70896346	130
31.72567473	126
31.742386	129
31.75909726	108
31.77580853	125
31.7925198	113
31.80923107	118
31.82594234	113
31.84265361	122
31.85936488	143
31.87607615	115
31.89278742	131
31.90949868	118
31.92620995	127
31.94292122	135
31.95963249	104
31.97634376	113
31.99305503	141
32.0097663	101
32.02647757	116
32.04318884	142
32.05990011	113
32.07661137	131
32.09332264	120
32.11003391	113
32.12674518	115
32.14345645	124
32.16016772	135
32.17687899	133
32.19359026	110
32.21030153	107
32.2270128	135
32.24372406	116
32.26043533	128
32.2771466	129
32.29385787	116
32.31056914	109
32.32728041	143
32.34399168	133
32.36070295	129
32.37741422	137
32.39412549	147
32.41083675	116
32.42754802	129
32.44425929	122
32.46097056	140
32.47768183	131
32.4943931	132
32.51110437	132
32.52781564	122
32.54452691	115
32.56123817	115
32.57794944	120
32.59466071	138
32.61137198	147
32.62808325	119
32.64479452	118
32.66150579	110
32.67821706	126
32.69492833	124
32.7116396	110
32.72835086	117
32.74506213	111
32.7617734	133
32.77848467	140
32.79519594	119
32.81190721	115
32.82861848	134
32.84532975	116
32.86204102	133
32.87875229	123
32.89546355	131
32.91217482	144
32.92888609	126
32.94559736	130
32.96230863	114
32.9790199	125
32.99573117	113
33.01244244	139
33.02915371	123
33.04586498	129
33.06257624	134
33.07928751	156
33.09599878	118
33.11271005	120
33.12942132	98
33.14613259	138
33.16284386	131
33.17955513	141
33.1962664	127
33.21297767	130
33.22968893	140
33.2464002	140
33.26311147	98
33.27982274	123
33.29653401	129
33.31324528	137
33.32995655	137
33.34666782	148
33.36337909	120
33.38009035	127
33.39680162	137
33.41351289	141
33.43022416	129
33.44693543	138
33.4636467	152
33.48035797	129
33.49706924	126
33.51378051	132
33.53049178	113
33.54720304	126
33.56391431	126
33.58062558	150
33.59733685	142
33.61404812	124
33.63075939	109
33.64747066	146
33.66418193	125
33.6808932	122
33.69760447	129
33.71431573	119
33.731027	106
33.74773827	134
33.76444954	126
33.78116081	132
33.79787208	123
33.81458335	114
33.83129462	125
33.84800589	129
33.86471716	102
33.88142842	130
33.89813969	120
33.91485096	128
33.93156223	125
33.9482735	145
33.96498477	125
33.98169604	141
33.99840731	144
34.01511858	115
34.03182984	138
34.04854111	125
34.06525238	125
34.08196365	118
34.09867492	117
34.11538619	128
34.13209746	126
34.14880873	129
34.16552	138
34.18223127	101
34.19894253	127
34.2156538	143
34.23236507	122
34.24907634	126
34.26578761	123
34.28249888	110
34.29921015	115
34.31592142	111
34.33263269	113
34.34934396	115
34.36605522	155
34.38276649	107
34.39947776	132
34.41618903	129
34.4329003	130
34.44961157	126
34.46632284	132
34.48303411	124
34.49974538	134
34.51645665	113
34.53316791	133
34.54987918	149
34.56659045	110
34.58330172	119
34.60001299	145
34.61672426	135
34.63343553	143
34.6501468	132
34.66685807	130
34.68356934	120
34.7002806	125
34.71699187	126
34.73370314	131
34.75041441	114
34.76712568	119
34.78383695	126
34.80054822	142
34.81725949	130
34.83397076	119
34.85068202	124
34.86739329	114
34.88410456	118
34.90081583	132
34.9175271	125
34.93423837	134
34.95094964	128
34.96766091	139
34.98437218	116
35.00108345	140
35.01779471	131
35.03450598	131
35.05121725	125
35.06792852	143
35.08463979	111
35.10135106	119
35.11806233	123
35.1347736	116
35.15148487	135
35.16819614	148
35.1849074	132
35.20161867	119
35.21832994	134
35.23504121	135
35.25175248	116
35.26846375	148
35.28517502	126
35.30188629	117
35.31859756	123
35.33530883	132
35.35202009	154
35.36873136	126
35.38544263	145
35.4021539	139
35.41886517	132
35.43557644	154
35.45228771	160
35.46899898	159
35.48571025	130
35.50242152	150
35.51913278	123
35.53584405	140
35.55255532	114
35.56926659	143
35.58597786	130
35.60268913	137
35.6194004	138
35.63611167	135
35.65282294	143
35.6695342	149
35.68624547	137
35.70295674	119
35.71966801	118
35.73637928	123
35.75309055	134
35.76980182	132
35.78651309	128
35.80322436	120
35.81993563	142
35.83664689	137
35.85335816	145
35.87006943	129
35.8867807	111
35.90349197	119
35.92020324	150
35.93691451	132
35.95362578	134
35.97033705	160
35.98704832	138
36.00375958	122
36.02047085	127
36.03718212	130
36.05389339	142
36.07060466	129
36.08731593	119
36.1040272	116
36.12073847	110
36.13744974	109
36.15416101	149
36.17087227	133
36.18758354	156
36.20429481	135
36.22100608	137
36.23771735	127
36.25442862	116
36.27113989	128
36.28785116	138
36.30456243	116
36.32127369	150
36.33798496	123
36.35469623	146
36.3714075	120
36.38811877	145
36.40483004	134
36.42154131	125
36.43825258	133
36.45496385	130
36.47167512	130
36.48838638	124
36.50509765	132
36.52180892	150
36.53852019	123
36.55523146	128
36.57194273	127
36.588654	140
36.60536527	140
36.62207654	122
36.63878781	155
36.65549907	124
36.67221034	147
36.68892161	169
36.70563288	158
36.72234415	133
36.73905542	137
36.75576669	173
36.77247796	155
36.78918923	167
36.8059005	195
36.82261176	238
36.83932303	207
36.8560343	217
36.87274557	244
36.88945684	325
36.90616811	392
36.92287938	567
36.93959065	791
36.95630192	1408
36.97301319	1892
36.98972445	2260
37.00643572	2426
37.02314699	2309
37.03985826	2043
37.05656953	1701
37.0732808	1519
37.08999207	1473
37.10670334	1348
37.12341461	1117
37.14012587	819
37.15683714	506
37.17354841	428
37.19025968	319
37.20697095	270
37.22368222	228
37.24039349	204
37.25710476	239
37.27381603	159
37.2905273	159
37.30723856	148
37.32394983	168
37.3406611	158
37.35737237	156
37.37408364	147
37.39079491	153
37.40750618	129
37.42421745	131
37.44092872	147
37.45763999	144
37.47435125	132
37.49106252	128
37.50777379	168
37.52448506	153
37.54119633	126
37.5579076	129
37.57461887	156
37.59133014	111
37.60804141	125
37.62475268	125
37.64146394	134
37.65817521	127
37.67488648	132
37.69159775	148
37.70830902	146
37.72502029	145
37.74173156	128
37.75844283	123
37.7751541	120
37.79186537	141
37.80857663	122
37.8252879	131
37.84199917	130
37.85871044	129
37.87542171	129
37.89213298	141
37.90884425	119
37.92555552	135
37.94226679	133
37.95897805	132
37.97568932	134
37.99240059	117
38.00911186	134
38.02582313	126
38.0425344	108
38.05924567	145
38.07595694	128
38.09266821	115
38.10937948	146
38.12609074	115
38.14280201	132
38.15951328	124
38.17622455	126
38.19293582	140
38.20964709	122
38.22635836	126
38.24306963	127
38.2597809	146
38.27649217	114
38.29320343	128
38.3099147	129
38.32662597	150
38.34333724	125
38.36004851	146
38.37675978	127
38.39347105	120
38.41018232	110
38.42689359	123
38.44360486	118
38.46031612	125
38.47702739	112
38.49373866	124
38.51044993	119
38.5271612	129
38.54387247	119
38.56058374	123
38.57729501	116
38.59400628	125
38.61071754	138
38.62742881	109
38.64414008	120
38.66085135	141
38.67756262	138
38.69427389	139
38.71098516	139
38.72769643	117
38.7444077	120
38.76111897	123
38.77783023	152
38.7945415	125
38.81125277	124
38.82796404	109
38.84467531	113
38.86138658	122
38.87809785	103
38.89480912	109
38.91152039	138
38.92823166	87
38.94494292	133
38.96165419	117
38.97836546	120
38.99507673	113
39.011788	115
39.02849927	115
39.04521054	117
39.06192181	127
39.07863308	133
39.09534435	122
39.11205561	144
39.12876688	133
39.14547815	138
39.16218942	119
39.17890069	114
39.19561196	132
39.21232323	133
39.2290345	112
39.24574577	122
39.26245704	115
39.2791683	147
39.29587957	120
39.31259084	126
39.32930211	100
39.34601338	116
39.36272465	133
39.37943592	137
39.39614719	117
39.41285846	129
39.42956972	115
39.44628099	138
39.46299226	116
39.47970353	126
39.4964148	144
39.51312607	145
39.52983734	152
39.54654861	111
39.56325988	133
39.57997115	133
39.59668241	142
39.61339368	137
39.63010495	152
39.64681622	145
39.66352749	156
39.68023876	162
39.69695003	197
39.7136613	214
39.73037257	259
39.74708384	225
39.7637951	185
39.78050637	178
39.79721764	177
39.81392891	178
39.83064018	180
39.84735145	162
39.86406272	158
39.88077399	115
39.89748526	142
39.91419653	125
39.93090779	110
39.94761906	137
39.96433033	142
39.9810416	123
39.99775287	120
40.01446414	104
40.03117541	130
40.04788668	125
40.06459795	120
40.08130921	128
40.09802048	130
40.11473175	116
40.13144302	118
40.14815429	131
40.16486556	112
40.18157683	115
40.1982881	135
40.21499937	118
40.23171064	113
40.2484219	125
40.26513317	132
40.28184444	114
40.29855571	128
40.31526698	118
40.33197825	133
40.34868952	141
40.36540079	117
40.38211206	130
40.39882333	146
40.41553459	134
40.43224586	140
40.44895713	129
40.4656684	109
40.48237967	130
40.49909094	145
40.51580221	110
40.53251348	112
40.54922475	140
40.56593602	116
40.58264728	108
40.59935855	124
40.61606982	140
40.63278109	134
40.64949236	131
40.66620363	110
40.6829149	101
40.69962617	109
40.71633744	131
40.73304871	131
40.74975997	139
40.76647124	98
40.78318251	150
40.79989378	124
40.81660505	143
40.83331632	128
40.85002759	124
40.86673886	119
40.88345013	107
40.90016139	113
40.91687266	126
40.93358393	131
40.9502952	122
40.96700647	137
40.98371774	130
41.00042901	122
41.01714028	114
41.03385155	111
41.05056282	110
41.06727408	116
41.08398535	135
41.10069662	118
41.11740789	126
41.13411916	146
41.15083043	120
41.1675417	127
41.18425297	112
41.20096424	134
41.21767551	131
41.23438677	126
41.25109804	140
41.26780931	112
41.28452058	135
41.30123185	117
41.31794312	127
41.33465439	118
41.35136566	128
41.36807693	120
41.3847882	125
41.40149946	118
41.41821073	102
41.434922	114
41.45163327	125
41.46834454	109
41.48505581	112
41.50176708	134
41.51847835	126
41.53518962	122
41.55190089	126
41.56861215	120
41.58532342	114
41.60203469	118
41.61874596	133
41.63545723	106
41.6521685	129
41.66887977	132
41.68559104	117
41.70230231	122
41.71901357	109
41.73572484	127
41.75243611	117
41.76914738	130
41.78585865	115
41.80256992	118
41.81928119	132
41.83599246	122
41.85270373	133
41.869415	112
41.88612626	133
41.90283753	132
41.9195488	95
41.93626007	117
41.95297134	123
41.96968261	141
41.98639388	125
42.00310515	143
42.01981642	135
42.03652769	141
42.05323895	142
42.06995022	156
42.08666149	154
42.10337276	141
42.12008403	154
42.1367953	116
42.15350657	143
42.17021784	129
42.18692911	119
42.20364038	128
42.22035164	109
42.23706291	138
42.25377418	134
42.27048545	125
42.28719672	115
42.30390799	126
42.32061926	139
42.33733053	126
42.3540418	134
42.37075306	113
42.38746433	115
42.4041756	131
42.42088687	109
42.43759814	145
42.45430941	144
42.47102068	112
42.48773195	124
42.50444322	117
42.52115449	131
42.53786575	120
42.55457702	116
42.57128829	117
42.58799956	139
42.60471083	122
42.6214221	127
42.63813337	123
42.65484464	124
42.67155591	148
42.68826718	119
42.70497844	131
42.72168971	156
42.73840098	144
42.75511225	149
42.77182352	150
42.78853479	135
42.80524606	141
42.82195733	123
42.8386686	149
42.85537987	126
42.87209113	127
42.8888024	122
42.90551367	138
42.92222494	116
42.93893621	127
42.95564748	144
42.97235875	127
42.98907002	123
43.00578129	135
43.02249256	134
43.03920382	147
43.05591509	144
43.07262636	125
43.08933763	140
43.1060489	135
43.12276017	145
43.13947144	146
43.15618271	173
43.17289398	130
43.18960524	143
43.20631651	129
43.22302778	140
43.23973905	137
43.25645032	145
43.27316159	130
43.28987286	141
43.30658413	127
43.3232954	134
43.34000667	143
43.35671793	145
43.3734292	141
43.39014047	129
43.40685174	132
43.42356301	144
43.44027428	153
43.45698555	138
43.47369682	143
43.49040809	137
43.50711936	167
43.52383062	171
43.54054189	168
43.55725316	144
43.57396443	135
43.5906757	140
43.60738697	160
43.62409824	146
43.64080951	161
43.65752078	140
43.67423205	171
43.69094331	164
43.70765458	184
43.72436585	219
43.74107712	203
43.75778839	248
43.77449966	261
43.79121093	261
43.8079222	260
43.82463347	264
43.84134473	345
43.858056	415
43.87476727	585
43.89147854	895
43.90818981	1503
43.92490108	2341
43.94161235	2963
43.95832362	3039
43.97503489	2047
43.99174616	1341
44.00845742	1029
44.02516869	1182
44.04187996	1619
44.05859123	1692
44.0753025	1592
44.09201377	1055
44.10872504	658
44.12543631	442
44.14214758	370
44.15885885	337
44.17557011	331
44.19228138	364
44.20899265	307
44.22570392	328
44.24241519	343
44.25912646	319
44.27583773	367
44.292549	371
44.30926027	353
44.32597154	391
44.3426828	352
44.35939407	404
44.37610534	328
44.39281661	348
44.40952788	379
44.42623915	339
44.44295042	333
44.45966169	322
44.47637296	319
44.49308423	308
44.50979549	295
44.52650676	259
44.54321803	275
44.5599293	252
44.57664057	241
44.59335184	230
44.61006311	224
44.62677438	278
44.64348565	258
44.66019691	218
44.67690818	204
44.69361945	236
44.71033072	209
44.72704199	217
44.74375326	225
44.76046453	197
44.7771758	224
44.79388707	203
44.81059834	210
44.8273096	192
44.84402087	209
44.86073214	204
44.87744341	184
44.89415468	243
44.91086595	210
44.92757722	215
44.94428849	222
44.96099976	209
44.97771103	233
44.99442229	223
45.01113356	230
45.02784483	267
45.0445561	308
45.06126737	299
45.07797864	282
45.09468991	331
45.11140118	314
45.12811245	294
45.14482372	344
45.16153498	325
45.17824625	320
45.19495752	339
45.21166879	353
45.22838006	359
45.24509133	338
45.2618026	346
45.27851387	331
45.29522514	309
45.31193641	299
45.32864767	290
45.34535894	285
45.36207021	292
45.37878148	261
45.39549275	268
45.41220402	232
45.42891529	238
45.44562656	240
45.46233783	224
45.47904909	184
45.49576036	204
45.51247163	194
45.5291829	176
45.54589417	182
45.56260544	176
45.57931671	183
45.59602798	142
45.61273925	157
45.62945052	164
45.64616178	175
45.66287305	168
45.67958432	162
45.69629559	132
45.71300686	158
45.72971813	148
45.7464294	146
45.76314067	125
45.77985194	128
45.79656321	139
45.81327447	139
45.82998574	144
45.84669701	143
45.86340828	147
45.88011955	129
45.89683082	149
45.91354209	131
45.93025336	130
45.94696463	153
45.9636759	147
45.98038716	134
45.99709843	134
46.0138097	134
46.03052097	134
46.04723224	135
46.06394351	130
46.08065478	129
46.09736605	111
46.11407732	112
46.13078858	133
46.14749985	148
46.16421112	139
46.18092239	111
46.19763366	101
46.21434493	115
46.2310562	139
46.24776747	115
46.26447874	113
46.28119001	148
46.29790127	116
46.31461254	117
46.33132381	139
46.34803508	123
46.36474635	117
46.38145762	126
46.39816889	116
46.41488016	131
46.43159143	101
46.4483027	112
46.46501396	100
46.48172523	134
46.4984365	113
46.51514777	116
46.53185904	116
46.54857031	108
46.56528158	115
46.58199285	125
46.59870412	108
46.61541539	122
46.63212665	120
46.64883792	104
46.66554919	106
46.68226046	119
46.69897173	101
46.715683	110
46.73239427	132
46.74910554	122
46.76581681	132
46.78252808	107
46.79923934	111
46.81595061	107
46.83266188	101
46.84937315	111
46.86608442	128
46.88279569	122
46.89950696	122
46.91621823	131
46.9329295	127
46.94964076	127
46.96635203	103
46.9830633	102
46.99977457	109
47.01648584	144
47.03319711	124
47.04990838	131
47.06661965	118
47.08333092	111
47.10004219	117
47.11675345	102
47.13346472	110
47.15017599	128
47.16688726	109
47.18359853	114
47.2003098	128
47.21702107	135
47.23373234	112
47.25044361	109
47.26715488	111
47.28386614	111
47.30057741	122
47.31728868	86
47.33399995	112
47.35071122	140
47.36742249	112
47.38413376	108
47.40084503	124
47.4175563	106
47.43426757	99
47.45097883	109
47.4676901	119
47.48440137	112
47.50111264	111
47.51782391	112
47.53453518	112
47.55124645	130
47.56795772	102
47.58466899	126
47.60138025	96
47.61809152	97
47.63480279	103
47.65151406	106
47.66822533	124
47.6849366	120
47.70164787	113
47.71835914	115
47.73507041	109
47.75178168	118
47.76849294	114
47.78520421	109
47.80191548	118
47.81862675	96
47.83533802	94
47.85204929	102
47.86876056	106
47.88547183	110
47.9021831	107
47.91889437	106
47.93560563	101
47.9523169	113
47.96902817	118
47.98573944	125
48.00245071	108
48.01916198	102
48.03587325	124
48.05258452	120
48.06929579	111
48.08600706	111
48.10271832	132
48.11942959	116
48.13614086	111
48.15285213	115
48.1695634	117
48.18627467	119
48.20298594	116
48.21969721	111
48.23640848	110
48.25311975	123
48.26983101	116
48.28654228	113
48.30325355	87
48.31996482	120
48.33667609	122
48.35338736	113
48.37009863	118
48.3868099	115
48.40352117	92
48.42023243	110
48.4369437	112
48.45365497	115
48.47036624	106
48.48707751	118
48.50378878	120
48.52050005	118
48.53721132	99
48.55392259	115
48.57063386	109
48.58734512	117
48.60405639	97
48.62076766	111
48.63747893	107
48.6541902	124
48.67090147	97
48.68761274	111
48.70432401	89
48.72103528	114
48.73774655	112
48.75445781	98
48.77116908	98
48.78788035	106
48.80459162	131
48.82130289	99
48.83801416	107
48.85472543	101
48.8714367	103
48.88814797	111
48.90485924	108
48.9215705	123
48.93828177	112
48.95499304	100
48.97170431	111
48.98841558	132
49.00512685	100
49.02183812	110
49.03854939	125
49.05526066	101
49.07197193	111
49.08868319	100
49.10539446	97
49.12210573	107
49.138817	101
49.15552827	116
49.17223954	114
49.18895081	142
49.20566208	83
49.22237335	104
49.23908461	122
49.25579588	103
49.27250715	100
49.28921842	102
49.30592969	126
49.32264096	109
49.33935223	83
49.3560635	108
49.37277477	119
49.38948604	117
49.4061973	103
49.42290857	128
49.43961984	120
49.45633111	114
49.47304238	143
49.48975365	141
49.50646492	110
49.52317619	100
49.53988746	118
49.55659873	119
49.57330999	139
49.59002126	125
49.60673253	104
49.6234438	93
49.64015507	127
49.65686634	115
49.67357761	117
49.69028888	131
49.70700015	126
49.72371142	112
49.74042268	103
49.75713395	112
49.77384522	111
49.79055649	96
49.80726776	108
49.82397903	116
49.8406903	110
49.85740157	109
49.87411284	113
49.8908241	124
49.90753537	95
49.92424664	113
49.94095791	101
49.95766918	125
49.97438045	119
49.99109172	127
50.00780299	123
50.02451426	115
50.04122553	111
50.05793679	124
50.07464806	118
50.09135933	115
50.1080706	116
50.12478187	135
50.14149314	96
50.15820441	115
50.17491568	106
50.19162695	111
50.20833822	118
50.22504948	97
50.24176075	107
50.25847202	102
50.27518329	120
50.29189456	132
50.30860583	112
50.3253171	118
50.34202837	114
50.35873964	114
50.37545091	130
50.39216217	120
50.40887344	112
50.42558471	117
50.44229598	127
50.45900725	127
50.47571852	124
50.49242979	108
50.50914106	112
50.52585233	119
50.5425636	110
50.55927486	137
50.57598613	116
50.5926974	116
50.60940867	113
50.62611994	124
50.64283121	116
50.65954248	118
50.67625375	170
50.69296502	114
50.70967628	123
50.72638755	122
50.74309882	119
50.75981009	132
50.77652136	103
50.79323263	115
50.8099439	123
50.82665517	118
50.84336644	120
50.86007771	138
50.87678897	145
50.89350024	120
50.91021151	130
50.92692278	122
50.94363405	126
50.96034532	131
50.97705659	155
50.99376786	152
51.01047913	149
51.0271904	129
51.04390166	149
51.06061293	139
51.0773242	138
51.09403547	140
51.11074674	153
51.12745801	150
51.14416928	164
51.16088055	159
51.17759182	148
51.19430309	167
51.21101435	164
51.22772562	135
51.24443689	155
51.26114816	137
51.27785943	184
51.2945707	146
51.31128197	167
51.32799324	165
51.34470451	149
51.36141578	171
51.37812704	142
51.39483831	162
51.41154958	148
51.42826085	154
51.44497212	144
51.46168339	153
51.47839466	144
51.49510593	144
51.5118172	174
51.52852846	148
51.54523973	117
51.561951	141
51.57866227	147
51.59537354	165
51.61208481	153
51.62879608	127
51.64550735	124
51.66221862	131
51.67892989	127
51.69564115	115
51.71235242	150
51.72906369	115
51.74577496	130
51.76248623	145
51.7791975	119
51.79590877	122
51.81262004	128
51.82933131	142
51.84604258	140
51.86275384	129
51.87946511	125
51.89617638	111
51.91288765	122
51.92959892	110
51.94631019	128
51.96302146	128
51.97973273	127
51.996444	110
52.01315527	122
52.02986653	120
52.0465778	141
52.06328907	103
52.08000034	123
52.09671161	119
52.11342288	107
52.13013415	128
52.14684542	122
52.16355669	109
52.18026795	130
52.19697922	113
52.21369049	129
52.23040176	123
52.24711303	106
52.2638243	115
52.28053557	109
52.29724684	95
52.31395811	111
52.33066938	114
52.34738064	114
52.36409191	99
52.38080318	123
52.39751445	117
52.41422572	95
52.43093699	118
52.44764826	116
52.46435953	107
52.4810708	101
52.49778207	131
52.51449333	130
52.5312046	111
52.54791587	112
52.56462714	122
52.58133841	125
52.59804968	132
52.61476095	127
52.63147222	117
52.64818349	132
52.66489476	134
52.68160602	112
52.69831729	103
52.71502856	118
52.73173983	110
52.7484511	110
52.76516237	95
52.78187364	104
52.79858491	106
52.81529618	108
52.83200745	112
52.84871871	108
52.86542998	106
52.88214125	102
52.89885252	88
52.91556379	112
52.93227506	108
52.94898633	113
52.9656976	113
52.98240887	129
52.99912013	91
53.0158314	99
53.03254267	116
53.04925394	113
53.06596521	107
53.08267648	115
53.09938775	118
53.11609902	93
53.13281029	97
53.14952156	108
53.16623282	89
53.18294409	114
53.19965536	123
53.21636663	115
53.2330779	117
53.24978917	116
53.26650044	122
53.28321171	107
53.29992298	87
53.31663425	106
53.33334551	93
53.35005678	107
53.36676805	113
53.38347932	92
53.40019059	122
53.41690186	118
53.43361313	106
53.4503244	104
53.46703567	109
53.48374694	111
53.5004582	114
53.51716947	102
53.53388074	128
53.55059201	95
53.56730328	113
53.58401455	120
53.60072582	108
53.61743709	101
53.63414836	103
53.65085962	108
53.66757089	119
53.68428216	124
53.70099343	86
53.7177047	97
53.73441597	97
53.75112724	99
53.76783851	102
53.78454978	97
53.80126105	116
53.81797231	106
53.83468358	102
53.85139485	107
53.86810612	119
53.88481739	72
53.90152866	104
53.91823993	107
53.9349512	98
53.95166247	100
53.96837374	99
53.985085	125
54.00179627	118
54.01850754	108
54.03521881	117
54.05193008	96
54.06864135	106
54.08535262	95
54.10206389	117
54.11877516	98
54.13548643	118
54.15219769	119
54.16890896	111
54.18562023	106
54.2023315	123
54.21904277	104
54.23575404	92
54.25246531	113
54.26917658	108
54.28588785	126
54.30259912	95
54.31931038	100
54.33602165	130
54.35273292	118
54.36944419	111
54.38615546	139
54.40286673	100
54.419578	110
54.43628927	125
54.45300054	109
54.4697118	120
54.48642307	129
54.50313434	109
54.51984561	129
54.53655688	114
54.55326815	125
54.56997942	115
54.58669069	110
54.60340196	124
54.62011323	112
54.63682449	116
54.65353576	127
54.67024703	119
54.6869583	117
54.70366957	144
54.72038084	155
54.73709211	131
54.75380338	154
54.77051465	170
54.78722592	152
54.80393718	163
54.82064845	175
54.83735972	178
54.85407099	175
54.87078226	188
54.88749353	191
54.9042048	248
54.92091607	294
54.93762734	415
54.95433861	595
54.97104987	978
54.98776114	1658
55.00447241	2331
55.02118368	3009
55.03789495	2535
55.05460622	1684
55.07131749	935
55.08802876	633
55.10474003	580
55.1214513	728
55.13816256	1054
55.15487383	1437
55.1715851	1510
55.18829637	1244
55.20500764	736
55.22171891	446
55.23843018	250
55.25514145	234
55.27185272	192
55.28856398	165
55.30527525	137
55.32198652	140
55.33869779	165
55.35540906	135
55.37212033	157
55.3888316	130
55.40554287	127
55.42225414	142
55.43896541	147
55.45567667	120
55.47238794	133
55.48909921	106
55.50581048	111
55.52252175	102
55.53923302	97
55.55594429	124
55.57265556	117
55.58936683	101
55.6060781	114
55.62278936	131
55.63950063	115
55.6562119	114
55.67292317	108
55.68963444	117
55.70634571	102
55.72305698	117
55.73976825	107
55.75647952	100
55.77319079	100
55.78990205	114
55.80661332	101
55.82332459	97
55.84003586	115
55.85674713	109
55.8734584	96
55.89016967	103
55.90688094	89
55.92359221	138
55.94030347	95
55.95701474	97
55.97372601	120
55.99043728	123
56.00714855	101
56.02385982	106
56.04057109	94
56.05728236	102
56.07399363	91
56.0907049	97
56.10741616	101
56.12412743	89
56.1408387	96
56.15754997	107
56.17426124	114
56.19097251	103
56.20768378	106
56.22439505	97
56.24110632	97
56.25781759	95
56.27452885	113
56.29124012	112
56.30795139	103
56.32466266	92
56.34137393	126
56.3580852	83
56.37479647	102
56.39150774	102
56.40821901	96
56.42493028	103
56.44164154	107
56.45835281	85
56.47506408	97
56.49177535	99
56.50848662	109
56.52519789	102
56.54190916	76
56.55862043	113
56.5753317	112
56.59204297	93
56.60875423	92
56.6254655	111
56.64217677	101
56.65888804	116
56.67559931	110
56.69231058	97
56.70902185	123
56.72573312	107
56.74244439	102
56.75915565	115
56.77586692	87
56.79257819	104
56.80928946	96
56.82600073	97
56.842712	104
56.85942327	93
56.87613454	92
56.89284581	122
56.90955708	95
56.92626834	93
56.94297961	110
56.95969088	103
56.97640215	108
56.99311342	103
57.00982469	98
57.02653596	109
57.04324723	96
57.0599585	108
57.07666977	107
57.09338103	116
57.1100923	115
57.12680357	87
57.14351484	82
57.16022611	104
57.17693738	94
57.19364865	113
57.21035992	112
57.22707119	102
57.24378246	101
57.26049372	98
57.27720499	97
57.29391626	115
57.31062753	103
57.3273388	102
57.34405007	108
57.36076134	100
57.37747261	97
57.39418388	106
57.41089514	103
57.42760641	101
57.44431768	109
57.46102895	106
57.47774022	81
57.49445149	99
57.51116276	111
57.52787403	100
57.5445853	101
57.56129657	107
57.57800783	81
57.5947191	114
57.61143037	100
57.62814164	116
57.64485291	112
57.66156418	119
57.67827545	116
57.69498672	93
57.71169799	98
57.72840926	103
57.74512052	85
57.76183179	104
57.77854306	99
57.79525433	91
57.8119656	104
57.82867687	101
57.84538814	107
57.86209941	109
57.87881068	94
57.89552195	97
57.91223321	104
57.92894448	109
57.94565575	132
57.96236702	81
57.97907829	108
57.99578956	114
58.01250083	91
58.0292121	91
58.04592337	104
58.06263464	124
58.0793459	101
58.09605717	113
58.11276844	87
58.12947971	84
58.14619098	96
58.16290225	109
58.17961352	143
58.19632479	97
58.21303606	81
58.22974732	95
58.24645859	116
58.26316986	114
58.27988113	93
58.2965924	122
58.31330367	109
58.33001494	119
58.34672621	100
58.36343748	99
58.38014875	107
58.39686001	104
58.41357128	94
58.43028255	116
58.44699382	110
58.46370509	84
58.48041636	103
58.49712763	116
58.5138389	110
58.53055017	99
58.54726144	112
58.5639727	93
58.58068397	93
58.59739524	104
58.61410651	102
58.63081778	87
58.64752905	100
58.66424032	108
58.68095159	101
58.69766286	112
58.71437413	89
58.73108539	86
58.74779666	94
58.76450793	123
58.7812192	91
58.79793047	91
58.81464174	103
58.83135301	103
58.84806428	93
58.86477555	108
58.88148682	103
58.89819808	103
58.91490935	104
58.93162062	108
58.94833189	98
58.96504316	96
58.98175443	81
58.9984657	108
59.01517697	110
59.03188824	107
59.0485995	98
59.06531077	83
59.08202204	102
59.09873331	85
59.11544458	101
59.13215585	114
59.14886712	99
59.16557839	112
59.18228966	84
59.19900093	93
59.21571219	91
59.23242346	85
59.24913473	92
59.265846	100
59.28255727	99
59.29926854	89
59.31597981	110
59.33269108	106
59.34940235	97
59.36611362	84
59.38282488	110
59.39953615	109
59.41624742	97
59.43295869	72
59.44966996	100
59.46638123	92
59.4830925	94
59.49980377	73
59.51651504	98
59.53322631	99
59.54993757	102
59.56664884	91
59.58336011	111
59.60007138	104
59.61678265	98
59.63349392	118
59.65020519	104
59.66691646	87
59.68362773	96
59.70033899	115
59.71705026	107
59.73376153	104
59.7504728	102
59.76718407	89
59.78389534	73
59.80060661	108
59.81731788	100
59.83402915	87
59.85074042	101
59.86745168	91
59.88416295	98
59.90087422	101
59.91758549	98
59.93429676	86
59.95100803	81
59.9677193	98
59.98443057	108
60.00114184	106
60.01785311	99
60.03456437	117
60.05127564	108
60.06798691	109
60.08469818	88
60.10140945	106
60.11812072	81
60.13483199	110
60.15154326	83
60.16825453	108
60.1849658	107
60.20167706	106
60.21838833	94
60.2350996	101
60.25181087	113
60.26852214	111
60.28523341	101
60.30194468	110
60.31865595	81
60.33536722	103
60.35207849	103
60.36878975	97
60.38550102	103
60.40221229	89
60.41892356	85
60.43563483	94
60.4523461	95
60.46905737	98
60.48576864	92
60.50247991	107
60.51919117	92
60.53590244	96
60.55261371	99
60.56932498	110
60.58603625	95
60.60274752	104
60.61945879	110
60.63617006	89
60.65288133	102
60.6695926	89
60.68630386	101
60.70301513	115
60.7197264	109
60.73643767	95
60.75314894	100
60.76986021	88
60.78657148	89
60.80328275	110
60.81999402	128
60.83670529	96
60.85341655	96
60.87012782	111
60.88683909	100
60.90355036	127
60.92026163	91
60.9369729	82
60.95368417	88
60.97039544	87
60.98710671	101
61.00381798	88
61.02052924	119
61.03724051	85
61.05395178	98
61.07066305	97
61.08737432	103
61.10408559	99
61.12079686	107
61.13750813	96
61.1542194	103
61.17093066	89
61.18764193	93
61.2043532	104
61.22106447	96
61.23777574	84
61.25448701	99
61.27119828	116
61.28790955	100
61.30462082	103
61.32133209	101
61.33804335	96
61.35475462	119
61.37146589	91
61.38817716	102
61.40488843	109
61.4215997	110
61.43831097	99
61.45502224	115
61.47173351	111
61.48844478	83
61.50515604	85
61.52186731	95
61.53857858	95
61.55528985	93
61.57200112	101
61.58871239	118
61.60542366	114
61.62213493	86
61.6388462	111
61.65555747	97
61.67226873	92
61.68898	103
61.70569127	96
61.72240254	108
61.73911381	109
61.75582508	102
61.77253635	102
61.78924762	93
61.80595889	102
61.82267016	96
61.83938142	97
61.85609269	94
61.87280396	87
61.88951523	106
61.9062265	98
61.92293777	103
61.93964904	97
61.95636031	116
61.97307158	108
61.98978284	82
62.00649411	92
62.02320538	89
62.03991665	116
62.05662792	98
62.07333919	100
62.09005046	99
62.10676173	104
62.123473	80
62.14018427	95
62.15689553	91
62.1736068	87
62.19031807	96
62.20702934	92
62.22374061	102
62.24045188	92
62.25716315	103
62.27387442	110
62.29058569	99
62.30729696	98
62.32400822	103
62.34071949	114
62.35743076	110
62.37414203	91
62.3908533	104
62.40756457	104
62.42427584	99
62.44098711	104
62.45769838	95
62.47440965	94
62.49112091	95
62.50783218	109
62.52454345	96
62.54125472	92
62.55796599	104
62.57467726	101
62.59138853	95
62.6080998	88
62.62481107	113
62.64152234	98
62.6582336	87
62.67494487	101
62.69165614	82
62.70836741	101
62.72507868	94
62.74178995	101
62.75850122	110
62.77521249	89
62.79192376	109
62.80863502	109
62.82534629	104
62.84205756	99
62.85876883	114
62.8754801	99
62.89219137	95
62.90890264	78
62.92561391	113
62.94232518	102
62.95903645	92
62.97574771	107
62.99245898	88
63.00917025	114
63.02588152	109
63.04259279	85
63.05930406	101
63.07601533	97
63.0927266	101
63.10943787	104
63.12614914	108
63.1428604	114
63.15957167	110
63.17628294	99
63.19299421	101
63.20970548	95
63.22641675	111
63.24312802	107
63.25983929	104
63.27655056	120
63.29326183	99
63.30997309	93
63.32668436	94
63.34339563	111
63.3601069	115
63.37681817	99
63.39352944	128
63.41024071	94
63.42695198	115
63.44366325	97
63.46037451	117
63.47708578	101
63.49379705	108
63.51050832	103
63.52721959	98
63.54393086	98
63.56064213	93
63.5773534	96
63.59406467	93
63.61077594	107
63.6274872	100
63.64419847	108
63.66090974	86
63.67762101	101
63.69433228	103
63.71104355	108
63.72775482	101
63.74446609	120
63.76117736	101
63.77788863	92
63.79459989	101
63.81131116	111
63.82802243	87
63.8447337	112
63.86144497	101
63.87815624	118
63.89486751	113
63.91157878	96
63.92829005	113
63.94500132	104
63.96171258	102
63.97842385	113
63.99513512	86
64.01184639	110
64.02855766	107
64.04526893	112
64.0619802	118
64.07869147	111
64.09540274	106
64.11211401	120
64.12882527	103
64.14553654	95
64.16224781	113
64.17895908	110
64.19567035	100
64.21238162	86
64.22909289	101
64.24580416	103
64.26251543	107
64.27922669	113
64.29593796	120
64.31264923	124
64.3293605	122
64.34607177	95
64.36278304	101
64.37949431	116
64.39620558	127
64.41291685	120
64.42962812	116
64.44633938	115
64.46305065	91
64.47976192	119
64.49647319	122
64.51318446	129
64.52989573	126
64.546607	132
64.56331827	128
64.58002954	117
64.59674081	148
64.61345207	125
64.63016334	122
64.64687461	132
64.66358588	122
64.68029715	154
64.69700842	124
64.71371969	143
64.73043096	145
64.74714223	147
64.7638535	114
64.78056476	146
64.79727603	133
64.8139873	174
64.83069857	148
64.84740984	177
64.86412111	173
64.88083238	167
64.89754365	152
64.91425492	171
64.93096619	174
64.94767745	201
64.96438872	143
64.98109999	205
64.99781126	161
65.01452253	179
65.0312338	171
65.04794507	190
65.06465634	161
65.08136761	214
65.09807887	198
65.11479014	188
65.13150141	168
65.14821268	224
65.16492395	204
65.18163522	167
65.19834649	189
65.21505776	216
65.23176903	199
65.2484803	201
65.26519156	207
65.28190283	220
65.2986141	192
65.31532537	223
65.33203664	231
65.34874791	216
65.36545918	218
65.38217045	252
65.39888172	174
65.41559299	190
65.43230425	182
65.44901552	197
65.46572679	218
65.48243806	201
65.49914933	200
65.5158606	208
65.53257187	244
65.54928314	177
65.56599441	187
65.58270568	209
65.59941694	193
65.61612821	207
65.63283948	185
65.64955075	189
65.66626202	179
65.68297329	197
65.69968456	154
65.71639583	187
65.7331071	168
65.74981836	167
65.76652963	167
65.7832409	155
65.79995217	183
65.81666344	153
65.83337471	147
65.85008598	163
65.86679725	143
65.88350852	153
65.90021979	146
65.91693105	148
65.93364232	146
65.95035359	144
65.96706486	137
65.98377613	143
66.0004874	167
66.01719867	124
66.03390994	128
66.05062121	147
66.06733248	133
66.08404374	143
66.10075501	140
66.11746628	137
66.13417755	122
66.15088882	131
66.16760009	127
66.18431136	125
66.20102263	127
66.2177339	117
66.23444517	138
66.25115643	120
66.2678677	145
66.28457897	116
66.30129024	116
66.31800151	113
66.33471278	95
66.35142405	124
66.36813532	106
66.38484659	125
66.40155786	116
66.41826912	102
66.43498039	106
66.45169166	100
66.46840293	112
66.4851142	118
66.50182547	123
66.51853674	117
66.53524801	111
66.55195928	124
66.56867054	116
66.58538181	116
66.60209308	101
66.61880435	99
66.63551562	93
66.65222689	95
66.66893816	103
66.68564943	109
66.7023607	101
66.71907197	114
66.73578323	115
66.7524945	113
66.76920577	100
66.78591704	113
66.80262831	117
66.81933958	104
66.83605085	114
66.85276212	94
66.86947339	101
66.88618466	98
66.90289592	122
66.91960719	108
66.93631846	104
66.95302973	94
66.969741	100
66.98645227	110
67.00316354	111
67.01987481	94
67.03658608	107
67.05329735	107
67.07000861	100
67.08671988	112
67.10343115	112
67.12014242	111
67.13685369	104
67.15356496	102
67.17027623	104
67.1869875	99
67.20369877	103
67.22041003	96
67.2371213	99
67.25383257	91
67.27054384	106
67.28725511	94
67.30396638	119
67.32067765	113
67.33738892	109
67.35410019	119
67.37081146	88
67.38752272	104
67.40423399	110
67.42094526	127
67.43765653	142
67.4543678	122
67.47107907	140
67.48779034	108
67.50450161	111
67.52121288	108
67.53792415	112
67.55463541	84
67.57134668	114
67.58805795	89
67.60476922	95
67.62148049	118
67.63819176	104
67.65490303	86
67.6716143	103
67.68832557	91
67.70503684	97
67.7217481	86
67.73845937	107
67.75517064	102
67.77188191	112
67.78859318	89
67.80530445	116
67.82201572	110
67.83872699	100
67.85543826	112
67.87214953	96
67.88886079	100
67.90557206	85
67.92228333	115
67.9389946	127
67.95570587	95
67.97241714	96
67.98912841	106
68.00583968	102
68.02255095	109
68.03926221	117
68.05597348	112
68.07268475	115
68.08939602	109
68.10610729	101
68.12281856	122
68.13952983	110
68.1562411	111
68.17295237	110
68.18966364	119
68.2063749	97
68.22308617	109
68.23979744	113
68.25650871	132
68.27321998	117
68.28993125	114
68.30664252	98
68.32335379	124
68.34006506	101
68.35677633	95
68.37348759	106
68.39019886	107
68.40691013	98
68.4236214	106
68.44033267	97
68.45704394	110
68.47375521	112
68.49046648	103
68.50717775	104
68.52388902	97
68.54060028	93
68.55731155	89
68.57402282	106
68.59073409	108
68.60744536	123
68.62415663	119
68.6408679	117
68.65757917	110
68.67429044	112
68.69100171	85
68.70771297	122
68.72442424	109
68.74113551	117
68.75784678	118
68.77455805	125
68.79126932	142
68.80798059	126
68.82469186	91
68.84140313	103
68.85811439	110
68.87482566	107
68.89153693	109
68.9082482	114
68.92495947	94
68.94167074	107
68.95838201	130
68.97509328	100
68.99180455	103
69.00851582	96
69.02522708	96
69.04193835	118
69.05864962	106
69.07536089	100
69.09207216	106
69.10878343	106
69.1254947	106
69.14220597	109
69.15891724	117
69.17562851	101
69.19233977	101
69.20905104	120
69.22576231	101
69.24247358	108
69.25918485	108
69.27589612	99
69.29260739	99
69.30931866	139
69.32602993	92
69.3427412	122
69.35945246	125
69.37616373	131
69.392875	103
69.40958627	126
69.42629754	89
69.44300881	100
69.45972008	104
69.47643135	112
69.49314262	98
69.50985388	107
69.52656515	125
69.54327642	116
69.55998769	100
69.57669896	112
69.59341023	104
69.6101215	113
69.62683277	84
69.64354404	106
69.66025531	113
69.67696657	114
69.69367784	115
69.71038911	97
69.72710038	117
69.74381165	122
69.76052292	114
69.77723419	85
69.79394546	131
69.81065673	134
69.827368	101
69.84407926	95
69.86079053	122
69.8775018	106
69.89421307	107
69.91092434	120
69.92763561	125
69.94434688	100
69.96105815	96
69.97776942	123
69.99448069	107
70.01119195	114
70.02790322	100
70.04461449	112
70.06132576	107
70.07803703	103
70.0947483	103
70.11145957	104
70.12817084	123
70.14488211	111
70.16159338	115
70.17830464	131
70.19501591	116
70.21172718	119
70.22843845	122
70.24514972	106
70.26186099	130
70.27857226	129
70.29528353	132
70.3119948	115
70.32870606	129
70.34541733	128
70.3621286	153
70.37883987	131
70.39555114	145
70.41226241	138
70.42897368	175
70.44568495	161
70.46239622	172
70.47910749	183
70.49581875	185
70.51253002	203
70.52924129	205
70.54595256	234
70.56266383	201
70.5793751	267
70.59608637	294
70.61279764	358
70.62950891	441
70.64622018	610
70.66293144	916
70.67964271	1432
70.69635398	2156
70.71306525	2996
70.72977652	3453
70.74648779	3246
70.76319906	2264
70.77991033	1434
70.7966216	930
70.81333287	658
70.83004413	598
70.8467554	613
70.86346667	691
70.88017794	914
70.89688921	1205
70.91360048	1622
70.93031175	1840
70.94702302	1638
70.96373429	1152
70.98044555	763
70.99715682	505
71.01386809	375
71.03057936	301
71.04729063	244
71.0640019	192
71.08071317	204
71.09742444	178
71.11413571	164
71.13084698	147
71.14755824	182
71.16426951	178
71.18098078	153
71.19769205	165
71.21440332	164
71.23111459	157
71.24782586	149
71.26453713	158
71.2812484	171
71.29795967	179
71.31467093	160
71.3313822	163
71.34809347	120
71.36480474	139
71.38151601	143
71.39822728	133
71.41493855	131
71.43164982	114
71.44836109	114
71.46507236	137
71.48178362	150
71.49849489	124
71.51520616	130
71.53191743	131
71.5486287	113
71.56533997	140
71.58205124	102
71.59876251	102
71.61547378	107
71.63218505	120
71.64889631	129
71.66560758	117
71.68231885	117
71.69903012	106
71.71574139	103
71.73245266	112
71.74916393	113
71.7658752	138
71.78258647	122
71.79929773	127
71.816009	120
71.83272027	112
71.84943154	114
71.86614281	108
71.88285408	109
71.89956535	103
71.91627662	103
71.93298789	107
71.94969916	107
71.96641042	123
71.98312169	114
71.99983296	110
72.01654423	117
72.0332555	107
72.04996677	113
72.06667804	123
72.08338931	111
72.10010058	95
72.11681185	110
72.13352311	124
72.15023438	100
72.16694565	113
72.18365692	124
72.20036819	116
72.21707946	101
72.23379073	116
72.250502	98
72.26721327	111
72.28392454	99
72.3006358	102
72.31734707	98
72.33405834	111
72.35076961	100
72.36748088	102
72.38419215	122
72.40090342	113
72.41761469	122
72.43432596	109
72.45103723	101
72.46774849	108
72.48445976	111
72.50117103	106
72.5178823	115
72.53459357	91
72.55130484	120
72.56801611	127
72.58472738	101
72.60143865	103
72.61814991	104
72.63486118	107
72.65157245	97
72.66828372	112
72.68499499	120
72.70170626	104
72.71841753	118
72.7351288	101
72.75184007	103
72.76855134	107
72.7852626	99
72.80197387	100
72.81868514	117
72.83539641	113
72.85210768	87
72.86881895	116
72.88553022	100
72.90224149	109
72.91895276	110
72.93566403	96
72.95237529	78
72.96908656	108
72.98579783	110
73.0025091	108
73.01922037	98
73.03593164	113
73.05264291	95
73.06935418	98
73.08606545	109
73.10277672	103
73.11948798	126
73.13619925	106
73.15291052	102
73.16962179	115
73.18633306	144
73.20304433	112
73.2197556	107
73.23646687	101
73.25317814	87
73.2698894	111
73.28660067	116
73.30331194	100
73.32002321	116
73.33673448	122
73.35344575	113
73.37015702	119
73.38686829	110
73.40357956	116
73.42029083	125
73.43700209	85
73.45371336	94
73.47042463	113
73.4871359	102
73.50384717	102
73.52055844	107
73.53726971	117
73.55398098	112
73.57069225	102
73.58740352	118
73.60411478	108
73.62082605	104
73.63753732	122
73.65424859	104
73.67095986	134
73.68767113	119
73.7043824	104
73.72109367	108
73.73780494	102
73.75451621	108
73.77122747	100
73.78793874	131
73.80465001	133
73.82136128	110
73.83807255	123
73.85478382	103
73.87149509	101
73.88820636	98
73.90491763	130
73.9216289	128
73.93834016	120
73.95505143	110
73.9717627	101
73.98847397	126
74.00518524	130
74.02189651	107
74.03860778	125
74.05531905	129
74.07203032	125
74.08874158	132
74.10545285	152
74.12216412	120
74.13887539	117
74.15558666	122
74.17229793	112
74.1890092	126
74.20572047	131
74.22243174	131
74.23914301	134
74.25585427	130
74.27256554	124
74.28927681	117
74.30598808	132
74.32269935	154
74.33941062	114
74.35612189	119
74.37283316	114
74.38954443	155
74.4062557	113
74.42296696	154
74.43967823	135
74.4563895	145
74.47310077	138
74.48981204	140
74.50652331	162
74.52323458	124
74.53994585	138
74.55665712	149
74.57336839	150
74.59007965	152
74.60679092	152
74.62350219	157
74.64021346	160
74.65692473	153
74.673636	152
74.69034727	172
74.70705854	167
74.72376981	154
74.74048107	179
74.75719234	165
74.77390361	178
74.79061488	188
74.80732615	202
74.82403742	206
74.84074869	201
74.85745996	188
74.87417123	215
74.8908825	235
74.90759376	231
74.92430503	213
74.9410163	265
74.95772757	248
74.97443884	264
74.99115011	225
75.00786138	236
75.02457265	247
75.04128392	289
75.05799519	268
75.07470645	296
75.09141772	277
75.10812899	324
75.12484026	290
75.14155153	318
75.1582628	359
75.17497407	369
75.19168534	377
75.20839661	388
75.22510788	352
75.24181914	362
75.25853041	404
75.27524168	402
75.29195295	403
75.30866422	404
75.32537549	370
75.34208676	373
75.35879803	396
75.3755093	392
75.39222057	348
75.40893183	405
75.4256431	358
75.44235437	365
75.45906564	369
75.47577691	336
75.49248818	352
75.50919945	355
75.52591072	345
75.54262199	352
75.55933325	311
75.57604452	321
75.59275579	305
75.60946706	275
75.62617833	296
75.6428896	308
75.65960087	254
75.67631214	251
75.69302341	252
75.70973468	238
75.72644594	270
75.74315721	271
75.75986848	203
75.77657975	212
75.79329102	220
75.81000229	204
75.82671356	203
75.84342483	205
75.8601361	206
75.87684737	178
75.89355863	194
75.9102699	188
75.92698117	165
75.94369244	179
75.96040371	178
75.97711498	171
75.99382625	150
76.01053752	158
76.02724879	158
76.04396006	167
76.06067132	139
76.07738259	143
76.09409386	131
76.11080513	156
76.1275164	144
76.14422767	161
76.16093894	139
76.17765021	130
76.19436148	120
76.21107275	138
76.22778401	150
76.24449528	128
76.26120655	124
76.27791782	129
76.29462909	139
76.31134036	127
76.32805163	117
76.3447629	113
76.36147417	114
76.37818543	145
76.3948967	131
76.41160797	117
76.42831924	116
76.44503051	124
76.46174178	108
76.47845305	110
76.49516432	118
76.51187559	140
76.52858686	112
76.54529812	102
76.56200939	118
76.57872066	101
76.59543193	111
76.6121432	109
76.62885447	101
76.64556574	111
76.66227701	114
76.67898828	110
76.69569955	107
76.71241081	113
76.72912208	104
76.74583335	107
76.76254462	108
76.77925589	117
76.79596716	106
76.81267843	111
76.8293897	104
76.84610097	100
76.86281224	103
76.8795235	116
76.89623477	92
76.91294604	103
76.92965731	104
76.94636858	102
76.96307985	95
76.97979112	95
76.99650239	111
77.01321366	86
77.02992492	113
77.04663619	104
77.06334746	103
77.08005873	98
77.09677	94
77.11348127	112
77.13019254	97
77.14690381	104
77.16361508	83
77.18032635	111
77.19703761	99
77.21374888	102
77.23046015	112
77.24717142	108
77.26388269	109
77.28059396	100
77.29730523	103
77.3140165	88
77.33072777	123
77.34743904	112
77.3641503	108
77.38086157	100
77.39757284	95
77.41428411	114
77.43099538	117
77.44770665	99
77.46441792	101
77.48112919	115
77.49784046	119
77.51455173	113
77.53126299	119
77.54797426	130
77.56468553	111
77.5813968	128
77.59810807	137
77.61481934	174
77.63153061	186
77.64824188	170
77.66495315	201
77.68166442	208
77.69837568	185
77.71508695	147
77.73179822	117
77.74850949	145
77.76522076	116
77.78193203	103
77.7986433	120
77.81535457	140
77.83206584	124
77.8487771	143
77.86548837	148
77.88219964	140
77.89891091	142
77.91562218	124
77.93233345	139
77.94904472	137
77.96575599	103
77.98246726	108
77.99917853	114
78.01588979	128
78.03260106	99
78.04931233	102
78.0660236	106
78.08273487	116
78.09944614	114
78.11615741	120
78.13286868	120
78.14957995	99
78.16629122	86
78.18300248	126
78.19971375	102
78.21642502	97
78.23313629	93
78.24984756	111
78.26655883	99
78.2832701	99
78.29998137	88
78.31669264	94
78.33340391	87
78.35011517	89
78.36682644	111
78.38353771	115
78.40024898	95
78.41696025	96
78.43367152	86
78.45038279	104
78.46709406	99
78.48380533	92
78.5005166	97
78.51722786	84
78.53393913	86
78.5506504	83
78.56736167	111
78.58407294	96
78.60078421	102
78.61749548	99
78.63420675	111
78.65091802	106
78.66762928	81
78.68434055	107
78.70105182	106
78.71776309	91
78.73447436	99
78.75118563	96
78.7678969	93
78.78460817	88
78.80131944	93
78.81803071	103
78.83474197	91
78.85145324	104
78.86816451	101
78.88487578	108
78.90158705	108
78.91829832	100
78.93500959	107
78.95172086	99
78.96843213	82
78.9851434	100
79.00185466	79
79.01856593	94
79.0352772	99
79.05198847	110
79.06869974	100
79.08541101	111
79.10212228	98
79.11883355	88
79.13554482	88
79.15225609	127
79.16896735	98
79.18567862	109
79.20238989	94
79.21910116	88
79.23581243	91
79.2525237	94
79.26923497	85
79.28594624	106
79.30265751	88
79.31936877	80
79.33608004	82
79.35279131	103
79.36950258	94
79.38621385	113
79.40292512	107
79.41963639	85
79.43634766	108
79.45305893	100
79.4697702	104
79.48648146	95
79.50319273	93
79.519904	110
79.53661527	99
79.55332654	103
79.57003781	94
79.58674908	96
79.60346035	101
79.62017162	98
79.63688289	103
79.65359415	100
79.67030542	88
79.68701669	86
79.70372796	96
79.72043923	96
79.7371505	93
79.75386177	88
79.77057304	128
79.78728431	98
79.80399558	80
79.82070684	95
79.83741811	86
79.85412938	103
79.87084065	91
79.88755192	83
79.90426319	91
79.92097446	88
79.93768573	92
79.954397	109
79.97110827	95
79.98781953	93
80.0045308	85
80.02124207	94
80.03795334	85
80.05466461	97
80.07137588	96
80.08808715	101
80.10479842	98
80.12150969	122
80.13822095	92
80.15493222	101
80.17164349	89
80.18835476	107
80.20506603	80
80.2217773	94
80.23848857	108
80.25519984	87
80.27191111	84
80.28862238	104
80.30533364	101
80.32204491	97
80.33875618	104
80.35546745	97
80.37217872	93
80.38888999	109
80.40560126	110
80.42231253	108
80.4390238	94
80.45573507	89
80.47244633	112
80.4891576	112
80.50586887	119
80.52258014	87
80.53929141	85
80.55600268	89
80.57271395	84
80.58942522	99
80.60613649	104
80.62284776	106
80.63955902	94
80.65627029	107
80.67298156	99
80.68969283	113
80.7064041	110
80.72311537	104
80.73982664	106
80.75653791	99
80.77324918	112
80.78996044	113
80.80667171	108
80.82338298	102
80.84009425	82
80.85680552	96
80.87351679	94
80.89022806	84
80.90693933	108
80.9236506	93
80.94036187	101
80.95707313	107
80.9737844	122
80.99049567	101
81.00720694	92
81.02391821	93
81.04062948	95
81.05734075	85
81.07405202	96
81.09076329	97
81.10747456	106
81.12418582	98
81.14089709	107
81.15760836	94
81.17431963	108
81.1910309	104
81.20774217	102
81.22445344	97
81.24116471	101
81.25787598	99
81.27458725	111
81.29129851	109
81.30800978	110
81.32472105	100
81.34143232	106
81.35814359	93
81.37485486	110
81.39156613	108
81.4082774	72
81.42498867	107
81.44169994	132
81.4584112	119
81.47512247	118
81.49183374	99
81.50854501	99
81.52525628	94
81.54196755	76
81.55867882	112
81.57539009	128
81.59210136	115
81.60881262	87
81.62552389	120
81.64223516	100
81.65894643	106
81.6756577	103
81.69236897	114
81.70908024	93
81.72579151	102
81.74250278	111
81.75921405	125
81.77592531	120
81.79263658	117
81.80934785	127
81.82605912	114
81.84277039	124
81.85948166	118
81.87619293	144
81.8929042	126
81.90961547	127
81.92632674	146
81.943038	133
81.95974927	113
81.97646054	146
81.99317181	132
82.00988308	126
82.02659435	145
82.04330562	147
82.06001689	119
82.07672816	155
82.09343943	134
82.11015069	137
82.12686196	146
82.14357323	152
82.1602845	152
82.17699577	180
82.19370704	165
82.21041831	182
82.22712958	158
82.24384085	182
82.26055212	178
82.27726338	164
82.29397465	188
82.31068592	168
82.32739719	176
82.34410846	202
82.36081973	201
82.377531	189
82.39424227	200
82.41095354	200
82.4276648	213
82.44437607	236
82.46108734	229
82.47779861	231
82.49450988	221
82.51122115	234
82.52793242	255
82.54464369	263
82.56135496	296
82.57806623	267
82.59477749	293
82.61148876	296
82.62820003	340
82.6449113	426
82.66162257	540
82.67833384	730
82.69504511	1004
82.71175638	1220
82.72846765	1176
82.74517892	938
82.76189018	658
82.77860145	490
82.79531272	382
82.81202399	316
82.82873526	294
82.84544653	309
82.8621578	300
82.87886907	299
82.89558034	320
82.91229161	387
82.92900287	482
82.94571414	624
82.96242541	706
82.97913668	622
82.99584795	517
83.01255922	379
83.02927049	296
83.04598176	268
83.06269303	229
83.07940429	194
83.09611556	204
83.11282683	190
83.1295381	190
83.14624937	176
83.16296064	176
83.17967191	170
83.19638318	149
83.21309445	154
83.22980572	156
83.24651698	169
83.26322825	148
83.27993952	139
83.29665079	160
83.31336206	152
83.33007333	148
83.3467846	128
83.36349587	135
83.38020714	114
83.39691841	131
83.41362967	122
83.43034094	147
83.44705221	128
83.46376348	128
83.48047475	153
83.49718602	129
83.51389729	118
83.53060856	114
83.54731983	110
83.5640311	118
83.58074236	93
83.59745363	123
83.6141649	112
83.63087617	119
83.64758744	116
83.66429871	104
83.68100998	124
83.69772125	103
83.71443252	108
83.73114379	97
83.74785505	117
83.76456632	118
83.78127759	107
83.79798886	106
83.81470013	91
83.8314114	98
83.84812267	109
83.86483394	109
83.88154521	97
83.89825647	115
83.91496774	108
83.93167901	100
83.94839028	111
83.96510155	92
83.98181282	94
83.99852409	106
84.01523536	111
84.03194663	101
84.0486579	104
84.06536916	97
84.08208043	103
84.0987917	93
84.11550297	98
84.13221424	81
84.14892551	99
84.16563678	79
84.18234805	107
84.19905932	118
84.21577059	96
84.23248185	130
84.24919312	91
84.26590439	114
84.28261566	96
84.29932693	95
84.3160382	100
84.33274947	78
84.34946074	72
84.36617201	95
84.38288328	93
84.39959454	106
84.41630581	96
84.43301708	83
84.44972835	97
84.46643962	103
84.48315089	93
84.49986216	88
84.51657343	109
84.5332847	108
84.54999596	96
84.56670723	116
84.5834185	93
84.60012977	100
84.61684104	88
84.63355231	85
84.65026358	104
84.66697485	80
84.68368612	109
84.70039739	91
84.71710865	92
84.73381992	108
84.75053119	97
84.76724246	83
84.78395373	97
84.800665	92
84.81737627	93
84.83408754	92
84.85079881	86
84.86751008	119
84.88422134	85
84.90093261	88
84.91764388	92
84.93435515	92
84.95106642	87
84.96777769	77
84.98448896	91
85.00120023	91
85.0179115	79
85.03462277	104
85.05133403	93
85.0680453	88
85.08475657	82
85.10146784	104
85.11817911	85
85.13489038	92
85.15160165	99
85.16831292	85
85.18502419	77
85.20173546	88
85.21844672	99
85.23515799	91
85.25186926	108
85.26858053	101
85.2852918	79
85.30200307	78
85.31871434	101
85.33542561	83
85.35213688	92
85.36884814	97
85.38555941	94
85.40227068	77
85.41898195	88
85.43569322	98
85.45240449	84
85.46911576	94
85.48582703	111
85.5025383	107
85.51924957	84
85.53596083	89
85.5526721	83
85.56938337	113
85.58609464	87
85.60280591	91
85.61951718	97
85.63622845	84
85.65293972	94
85.66965099	80
85.68636226	96
85.70307352	83
85.71978479	97
85.73649606	87
85.75320733	88
85.7699186	98
85.78662987	89
85.80334114	103
85.82005241	97
85.83676368	79
85.85347495	87
85.87018621	78
85.88689748	88
85.90360875	92
85.92032002	109
85.93703129	95
85.95374256	80
85.97045383	98
85.9871651	86
86.00387637	83
86.02058764	96
86.0372989	79
86.05401017	88
86.07072144	89
86.08743271	92
86.10414398	83
86.12085525	88
86.13756652	72
86.15427779	91
86.17098906	87
86.18770032	106
86.20441159	83
86.22112286	71
86.23783413	83
86.2545454	95
86.27125667	95
86.28796794	79
86.30467921	103
86.32139048	96
86.33810175	102
86.35481301	96
86.37152428	88
86.38823555	95
86.40494682	77
86.42165809	89
86.43836936	98
86.45508063	84
86.4717919	91
86.48850317	82
86.50521444	87
86.5219257	103
86.53863697	94
86.55534824	94
86.57205951	93
86.58877078	96
86.60548205	82
86.62219332	85
86.63890459	95
86.65561586	88
86.67232713	110
86.68903839	95
86.70574966	99
86.72246093	67
86.7391722	98
86.75588347	84
86.77259474	89
86.78930601	88
86.80601728	111
86.82272855	108
86.83943981	93
86.85615108	91
86.87286235	108
86.88957362	92
86.90628489	84
86.92299616	93
86.93970743	98
86.9564187	97
86.97312997	89
86.98984124	110
87.0065525	99
87.02326377	96
87.03997504	96
87.05668631	111
87.07339758	119
87.09010885	109
87.10682012	99
87.12353139	133
87.14024266	163
87.15695393	130
87.17366519	137
87.19037646	120
87.20708773	101
87.223799	95
87.24051027	116
87.25722154	106
87.27393281	118
87.29064408	118
87.30735535	118
87.32406662	96
87.34077788	109
87.35748915	100
87.37420042	127
87.39091169	85
87.40762296	110
87.42433423	118
87.4410455	113
87.45775677	107
87.47446804	106
87.49117931	99
87.50789057	67
87.52460184	98
87.54131311	96
87.55802438	74
87.57473565	92
87.59144692	101
87.60815819	96
87.62486946	104
87.64158073	74
87.65829199	95
87.67500326	80
87.69171453	82
87.7084258	82
87.72513707	79
87.74184834	83
87.75855961	69
87.77527088	100
87.79198215	88
87.80869342	84
87.82540468	89
87.84211595	101
87.85882722	81
87.87553849	71
87.89224976	77
87.90896103	98
87.9256723	85
87.94238357	87
87.95909484	89
87.97580611	95
87.99251737	83
88.00922864	81
88.02593991	88
88.04265118	64
88.05936245	84
88.07607372	92
88.09278499	95
88.10949626	91
88.12620753	82
88.1429188	81
88.15963006	79
88.17634133	96
88.1930526	94
88.20976387	83
88.22647514	93
88.24318641	85
88.25989768	91
88.27660895	91
88.29332022	84
88.31003148	103
88.32674275	84
88.34345402	82
88.36016529	99
88.37687656	70
88.39358783	99
88.4102991	85
88.42701037	87
88.44372164	73
88.46043291	101
88.47714417	96
88.49385544	68
88.51056671	100
88.52727798	88
88.54398925	91
88.56070052	74
88.57741179	86
88.59412306	100
88.61083433	103
88.6275456	91
88.64425686	102
88.66096813	79
88.6776794	91
88.69439067	77
88.71110194	80
88.72781321	84
88.74452448	94
88.76123575	88
88.77794702	89
88.79465829	83
88.81136955	82
88.82808082	83
88.84479209	77
88.86150336	95
88.87821463	84
88.8949259	92
88.91163717	91
88.92834844	93
88.94505971	87
88.96177098	85
88.97848224	81
88.99519351	89
89.01190478	106
89.02861605	93
89.04532732	91
89.06203859	87
89.07874986	97
89.09546113	98
89.1121724	101
89.12888366	83
89.14559493	86
89.1623062	104
89.17901747	94
89.19572874	69
89.21244001	78
89.22915128	95
89.24586255	83
89.26257382	86
89.27928509	102
89.29599635	80
89.31270762	91
89.32941889	94
89.34613016	77
89.36284143	92
89.3795527	88
89.39626397	82
89.41297524	94
89.42968651	84
89.44639778	82
89.46310904	92
89.47982031	93
89.49653158	85
89.51324285	101
89.52995412	93
89.54666539	92
89.56337666	89
89.58008793	85
89.5967992	79
89.61351047	100
89.63022173	80
89.646933	82
89.66364427	92
89.68035554	107
89.69706681	86
89.71377808	88
89.73048935	82
89.74720062	94
89.76391189	97
89.78062316	94
89.79733442	84
89.81404569	96
89.83075696	91
89.84746823	124
89.8641795	87
89.88089077	97
89.89760204	102
89.91431331	102
89.93102458	116
89.94773584	87
89.96444711	103
89.98115838	108
89.99786965	101
90.01458092	110
90.03129219	111
90.04800346	99
90.06471473	92
90.081426	119
90.09813727	118
90.11484853	112
90.1315598	110
90.14827107	107
90.16498234	96
90.18169361	108
90.19840488	104
90.21511615	101
90.23182742	120
90.24853869	109
90.26524996	109
90.28196122	141
90.29867249	109
90.31538376	118
90.33209503	132
90.3488063	115
90.36551757	129
90.38222884	139
90.39894011	146
90.41565138	160
90.43236265	168
90.44907391	233
90.46578518	263
90.48249645	321
90.49920772	344
90.51591899	373
90.53263026	321
90.54934153	280
90.5660528	231
90.58276407	204
90.59947533	186
90.6161866	130
90.63289787	189
90.64960914	139
90.66632041	137
90.68303168	150
90.69974295	163
90.71645422	167
90.73316549	191
90.74987676	238
90.76658802	225
90.78329929	251
90.80001056	230
90.81672183	214
90.8334331	222
90.85014437	189
90.86685564	175
90.88356691	158
90.90027818	160
90.91698945	163
90.93370071	154
90.95041198	149
90.96712325	156
90.98383452	167
91.00054579	141
91.01725706	135
91.03396833	159
91.0506796	148
91.06739087	144
91.08410214	161
91.1008134	152
91.11752467	134
91.13423594	146
91.15094721	175
91.16765848	147
91.18436975	141
91.20108102	162
91.21779229	131
91.23450356	148
91.25121483	137
91.26792609	140
91.28463736	138
91.30134863	140
91.3180599	146
91.33477117	138
91.35148244	134
91.36819371	118
91.38490498	131
91.40161625	146
91.41832751	129
91.43503878	143
91.45175005	142
91.46846132	124
91.48517259	141
91.50188386	134
91.51859513	123
91.5353064	118
91.55201767	129
91.56872894	101
91.5854402	119
91.60215147	127
91.61886274	120
91.63557401	131
91.65228528	117
91.66899655	127
91.68570782	123
91.70241909	107
91.71913036	111
91.73584163	122
91.75255289	96
91.76926416	96
91.78597543	118
91.8026867	120
91.81939797	124
91.83610924	106
91.85282051	97
91.86953178	110
91.88624305	116
91.90295432	118
91.91966558	112
91.93637685	107
91.95308812	103
91.96979939	103
91.98651066	106
92.00322193	94
92.0199332	99
92.03664447	93
92.05335574	100
92.07006701	98
92.08677827	101
92.10348954	91
92.12020081	98
92.13691208	97
92.15362335	91
92.17033462	89
92.18704589	89
92.20375716	100
92.22046843	98
92.23717969	98
92.25389096	117
92.27060223	113
92.2873135	84
92.30402477	84
92.32073604	99
92.33744731	112
92.35415858	76
92.37086985	88
92.38758112	91
92.40429238	79
92.42100365	79
92.43771492	91
92.45442619	97
92.47113746	93
92.48784873	106
92.50456	100
92.52127127	80
92.53798254	89
92.55469381	97
92.57140507	94
92.58811634	109
92.60482761	87
92.62153888	91
92.63825015	100
92.65496142	84
92.67167269	89
92.68838396	79
92.70509523	84
92.7218065	96
92.73851776	100
92.75522903	97
92.7719403	87
92.78865157	93
92.80536284	98
92.82207411	97
92.83878538	89
92.85549665	98
92.87220792	93
92.88891918	79
92.90563045	86
92.92234172	92
92.93905299	98
92.95576426	91
92.97247553	92
92.9891868	83
93.00589807	87
93.02260934	106
93.03932061	94
93.05603187	108
93.07274314	86
93.08945441	80
93.10616568	94
93.12287695	83
93.13958822	104
93.15629949	88
93.17301076	80
93.18972203	86
93.2064333	84
93.22314456	101
93.23985583	95
93.2565671	78
93.27327837	83
93.28998964	85
93.30670091	100
93.32341218	96
93.34012345	88
93.35683472	96
93.37354599	91
93.39025725	85
93.40696852	86
93.42367979	82
93.44039106	81
93.45710233	110
93.4738136	85
93.49052487	73
93.50723614	104
93.52394741	89
93.54065868	87
93.55736994	70
93.57408121	83
93.59079248	100
93.60750375	85
93.62421502	98
93.64092629	89
93.65763756	89
93.67434883	78
93.6910601	95
93.70777136	86
93.72448263	86
93.7411939	78
93.75790517	96
93.77461644	84
93.79132771	72
93.80803898	99
93.82475025	88
93.84146152	91
93.85817279	78
93.87488405	80
93.89159532	77
93.90830659	83
93.92501786	100
93.94172913	81
93.9584404	92
93.97515167	92
93.99186294	77
94.00857421	74
94.02528548	100
94.04199674	93
94.05870801	100
94.07541928	72
94.09213055	77
94.10884182	83
94.12555309	74
94.14226436	89
94.15897563	82
94.1756869	70
94.19239817	97
94.20910943	89
94.2258207	76
94.24253197	97
94.25924324	72
94.27595451	80
94.29266578	89
94.30937705	88
94.32608832	91
94.34279959	71
94.35951085	73
94.37622212	94
94.39293339	91
94.40964466	116
94.42635593	96
94.4430672	89
94.45977847	93
94.47648974	122
94.49320101	82
94.50991228	98
94.52662354	87
94.54333481	84
94.56004608	77
94.57675735	85
94.59346862	86
94.61017989	96
94.62689116	70
94.64360243	82
94.6603137	95
94.67702497	71
94.69373623	69
94.7104475	98
94.72715877	85
94.74387004	96
94.76058131	80
94.77729258	95
94.79400385	98
94.81071512	87
94.82742639	82
94.84413766	72
94.86084892	91
94.87756019	99
94.89427146	80
94.91098273	87
94.927694	91
94.94440527	74
94.96111654	86
94.97782781	100
94.99453908	79
95.01125035	92
95.02796161	79
95.04467288	107
95.06138415	81
95.07809542	100
95.09480669	94
95.11151796	69
95.12822923	103
95.1449405	97
95.16165177	80
95.17836303	91
95.1950743	81
95.21178557	74
95.22849684	72
95.24520811	77
95.26191938	86
95.27863065	89
95.29534192	69
95.31205319	91
95.32876446	91
95.34547572	78
95.36218699	80
95.37889826	70
95.39560953	100
95.4123208	84
95.42903207	104
95.44574334	118
95.46245461	127
95.47916588	111
95.49587715	133
95.51258841	91
95.52929968	106
95.54601095	86
95.56272222	68
95.57943349	95
95.59614476	89
95.61285603	87
95.6295673	84
95.64627857	89
95.66298984	96
95.6797011	82
95.69641237	89
95.71312364	91
95.72983491	95
95.74654618	102
95.76325745	92
95.77996872	94
95.79667999	85
95.81339126	113
95.83010253	99
95.84681379	101
95.86352506	92
95.88023633	97
95.8969476	89
95.91365887	79
95.93037014	92
95.94708141	71
95.96379268	93
95.98050395	70
95.99721521	81
96.01392648	101
96.03063775	77
96.04734902	93
96.06406029	98
96.08077156	88
96.09748283	72
96.1141941	111
96.13090537	106
96.14761664	87
96.1643279	97
96.18103917	86
96.19775044	94
96.21446171	98
96.23117298	97
96.24788425	83
96.26459552	106
96.28130679	84
96.29801806	87
96.31472933	95
96.33144059	87
96.34815186	94
96.36486313	85
96.3815744	93
96.39828567	80
96.41499694	95
96.43170821	103
96.44841948	108
96.46513075	87
96.48184202	101
96.49855328	106
96.51526455	107
96.53197582	110
96.54868709	106
96.56539836	98
96.58210963	100
96.5988209	86
96.61553217	74
96.63224344	86
96.6489547	102
96.66566597	82
96.68237724	100
96.69908851	95
96.71579978	99
96.73251105	83
96.74922232	84
96.76593359	100
96.78264486	100
96.79935613	98
96.81606739	95
96.83277866	79
96.84948993	88
96.8662012	102
96.88291247	88
96.89962374	87
96.91633501	88
96.93304628	71
96.94975755	94
96.96646882	99
96.98318008	82
96.99989135	73
97.01660262	102
97.03331389	88
97.05002516	86
97.06673643	82
97.0834477	84
97.10015897	100
97.11687024	100
97.13358151	80
97.15029277	92
97.16700404	81
97.18371531	91
97.20042658	78
97.21713785	93
97.23384912	98
97.25056039	89
97.26727166	91
97.28398293	95
97.3006942	92
97.31740546	86
97.33411673	79
97.350828	95
97.36753927	96
97.38425054	99
97.40096181	80
97.41767308	83
97.43438435	76
97.45109562	98
97.46780688	93
97.48451815	83
97.50122942	107
97.51794069	83
97.53465196	92
97.55136323	72
97.5680745	96
97.58478577	92
97.60149704	87
97.61820831	88
97.63491957	69
97.65163084	83
97.66834211	80
97.68505338	93
97.70176465	94
97.71847592	67
97.73518719	95
97.75189846	74
97.76860973	88
97.785321	103
97.80203226	92
97.81874353	86
97.8354548	110
97.85216607	70
97.86887734	80
97.88558861	76
97.90229988	67
97.91901115	96
97.93572242	83
97.95243369	107
97.96914495	95
97.98585622	80
98.00256749	76
98.01927876	83
98.03599003	95
98.0527013	84
98.06941257	85
98.08612384	92
98.10283511	87
98.11954637	84
98.13625764	83
98.15296891	80
98.16968018	99
98.18639145	86
98.20310272	70
98.21981399	84
98.23652526	89
98.25323653	70
98.2699478	97
98.28665906	77
98.30337033	86
98.3200816	92
98.33679287	85
98.35350414	87
98.37021541	103
98.38692668	86
98.40363795	70
98.42034922	83
98.43706049	97
98.45377175	98
98.47048302	83
98.48719429	101
98.50390556	85
98.52061683	107
98.5373281	70
98.55403937	86
98.57075064	72
98.58746191	93
98.60417318	83
98.62088444	81
98.63759571	72
98.65430698	91
98.67101825	93
98.68772952	84
98.70444079	113
98.72115206	93
98.73786333	87
98.7545746	71
98.77128587	70
98.78799713	87
98.8047084	102
98.82141967	76
98.83813094	84
98.85484221	97
98.87155348	89
98.88826475	117
98.90497602	95
98.92168729	100
98.93839855	78
98.95510982	87
98.97182109	86
98.98853236	88
99.00524363	85
99.0219549	92
99.03866617	99
99.05537744	98
99.07208871	101
99.08879998	101
99.10551124	102
99.12222251	99
99.13893378	96
99.15564505	100
99.17235632	85
99.18906759	100
99.20577886	87
99.22249013	93
99.2392014	91
99.25591267	81
99.27262393	76
99.2893352	88
99.30604647	97
99.32275774	89
99.33946901	93
99.35618028	102
99.37289155	93
99.38960282	81
99.40631409	98
99.42302536	108
99.43973662	97
99.45644789	71
99.47315916	83
99.48987043	94
99.5065817	77
99.52329297	80
99.54000424	73
99.55671551	86
99.57342678	86
99.59013805	93
99.60684931	100
99.62356058	80
99.64027185	86
99.65698312	97
99.67369439	84
99.69040566	74
99.70711693	84
99.7238282	74
99.74053947	100
99.75725073	99
99.773962	83
99.79067327	79
99.80738454	88
99.82409581	76
99.84080708	69
99.85751835	92
99.87422962	71
99.89094089	76
99.90765216	85
99.92436342	88
99.94107469	81
99.95778596	82
99.97449723	73
99.9912085	73