5.00435563	245
5.021066899	280
5.037778168	267
5.054489437	274
5.071200706	286
5.087911975	285
5.104623244	232
5.121334513	210
5.138045782	267
5.154757051	234
5.17146832	240
5.188179589	247
5.204890858	214
5.221602127	247
5.238313396	210
5.255024665	248
5.271735934	238
5.288447203	249
5.305158472	235
5.321869741	262
5.33858101	294
5.355292279	235
5.372003548	244
5.388714816	254
5.405426085	241
5.422137354	245
5.438848623	243
5.455559892	219
5.472271161	233
5.48898243	210
5.505693699	224
5.522404968	240
5.539116237	223
5.555827506	222
5.572538775	217
5.589250044	210
5.605961313	208
5.622672582	179
5.639383851	207
5.65609512	215
5.672806389	208
5.689517658	208
5.706228927	208
5.722940196	208
5.739651465	208
5.756362734	213
5.773074003	178
5.789785272	215
5.806496541	208
5.82320781	236
5.839919079	188
5.856630348	206
5.873341617	183
5.890052886	171
5.906764155	200
5.923475424	206
5.940186693	171
5.956897962	168
5.973609231	192
5.9903205	190
6.007031769	167
6.023743038	215
6.040454307	165
6.057165576	189
6.073876845	201
6.090588114	204
6.107299383	179
6.124010652	193
6.14072192	180
6.157433189	188
6.174144458	198
6.190855727	177
6.207566996	185
6.224278265	159
6.240989534	165
6.257700803	199
6.274412072	147
6.291123341	164
6.30783461	167
6.324545879	165
6.341257148	164
6.357968417	199
6.374679686	192
6.391390955	170
6.408102224	147
6.424813493	168
6.441524762	143
6.458236031	163
6.4749473	159
6.491658569	171
6.508369838	180
6.525081107	164
6.541792376	171
6.558503645	155
6.575214914	159
6.591926183	137
6.608637452	168
6.625348721	158
6.64205999	173
6.658771259	160
6.675482528	134
6.692193797	156
6.708905066	145
6.725616335	141
6.742327604	160
6.759038873	156
6.775750142	149
6.792461411	132
6.80917268	141
6.825883949	147
6.842595218	172
6.859306487	112
6.876017756	139
6.892729024	143
6.909440293	163
6.926151562	146
6.942862831	161
6.9595741	147
6.976285369	132
6.992996638	128
7.009707907	131
7.026419176	131
7.043130445	148
7.059841714	143
7.076552983	147
7.093264252	145
7.109975521	145
7.12668679	152
7.143398059	127
7.160109328	126
7.176820597	162
7.193531866	141
7.210243135	137
7.226954404	122
7.243665673	134
7.260376942	130
7.277088211	144
7.29379948	127
7.310510749	116
7.327222018	130
7.343933287	135
7.360644556	123
7.377355825	118
7.394067094	114
7.410778363	144
7.427489632	116
7.444200901	112
7.46091217	123
7.477623439	108
7.494334708	135
7.511045977	100
7.527757246	104
7.544468515	131
7.561179784	123
7.577891053	129
7.594602322	127
7.611313591	123
7.62802486	141
7.644736128	127
7.661447397	118
7.678158666	124
7.694869935	98
7.711581204	112
7.728292473	112
7.745003742	124
7.761715011	137
7.77842628	122
7.795137549	114
7.811848818	146
7.828560087	123
7.845271356	117
7.861982625	125
7.878693894	112
7.895405163	113
7.912116432	120
7.928827701	118
7.94553897	104
7.962250239	106
7.978961508	125
7.995672777	114
8.012384046	114
8.029095315	110
8.045806584	109
8.062517853	118
8.079229122	106
8.095940391	127
8.11265166	98
8.129362929	97
8.146074198	125
8.162785467	120
8.179496736	115
8.196208005	112
8.212919274	91
8.229630543	84
8.246341812	119
8.263053081	110
8.27976435	87
8.296475619	115
8.313186888	110
8.329898157	111
8.346609426	118
8.363320695	98
8.380031964	89
8.396743233	111
8.413454501	115
8.43016577	123
8.446877039	116
8.463588308	124
8.480299577	116
8.497010846	101
8.513722115	98
8.530433384	118
8.547144653	102
8.563855922	95
8.580567191	110
8.59727846	109
8.613989729	114
8.630700998	103
8.647412267	103
8.664123536	96
8.680834805	79
8.697546074	106
8.714257343	116
8.730968612	100
8.747679881	102
8.76439115	103
8.781102419	96
8.797813688	108
8.814524957	101
8.831236226	95
8.847947495	92
8.864658764	114
8.881370033	79
8.898081302	109
8.914792571	92
8.93150384	116
8.948215109	103
8.964926378	82
8.981637647	93
8.998348916	114
9.015060185	93
9.031771454	96
9.048482723	96
9.065193992	101
9.081905261	81
9.09861653	102
9.115327799	118
9.132039068	102
9.148750337	89
9.165461605	100
9.182172874	94
9.198884143	103
9.215595412	92
9.232306681	97
9.24901795	86
9.265729219	111
9.282440488	96
9.299151757	86
9.315863026	96
9.332574295	84
9.349285564	96
9.365996833	97
9.382708102	96
9.399419371	93
9.41613064	100
9.432841909	109
9.449553178	103
9.466264447	92
9.482975716	76
9.499686985	77
9.516398254	83
9.533109523	94
9.549820792	71
9.566532061	96
9.58324333	87
9.599954599	83
9.616665868	91
9.633377137	95
9.650088406	76
9.666799675	82
9.683510944	74
9.700222213	85
9.716933482	86
9.733644751	95
9.75035602	93
9.767067289	93
9.783778558	92
9.800489827	85
9.817201096	96
9.833912365	81
9.850623634	81
9.867334903	88
9.884046172	84
9.900757441	92
9.917468709	83
9.934179978	85
9.950891247	70
9.967602516	76
9.984313785	87
10.00102505	73
10.01773632	88
10.03444759	81
10.05115886	97
10.06787013	101
10.0845814	79
10.10129267	85
10.11800394	95
10.13471521	93
10.15142648	82
10.16813774	71
10.18484901	82
10.20156028	102
10.21827155	88
10.23498282	98
10.25169409	91
10.26840536	73
10.28511663	79
10.3018279	81
10.31853917	82
10.33525043	88
10.3519617	89
10.36867297	77
10.38538424	87
10.40209551	101
10.41880678	80
10.43551805	93
10.45222932	77
10.46894059	83
10.48565186	82
10.50236312	84
10.51907439	74
10.53578566	101
10.55249693	79
10.5692082	85
10.58591947	79
10.60263074	83
10.61934201	76
10.63605328	73
10.65276455	67
10.66947581	97
10.68618708	83
10.70289835	70
10.71960962	69
10.73632089	89
10.75303216	77
10.76974343	84
10.7864547	67
10.80316597	93
10.81987723	94
10.8365885	85
10.85329977	87
10.87001104	78
10.88672231	63
10.90343358	65
10.92014485	84
10.93685612	84
10.95356739	82
10.97027866	73
10.98698992	76
11.00370119	84
11.02041246	66
11.03712373	85
11.053835	73
11.07054627	68
11.08725754	71
11.10396881	85
11.12068008	82
11.13739135	67
11.15410261	67
11.17081388	81
11.18752515	81
11.20423642	91
11.22094769	58
11.23765896	63
11.25437023	88
11.2710815	84
11.28779277	86
11.30450404	82
11.3212153	77
11.33792657	83
11.35463784	71
11.37134911	70
11.38806038	77
11.40477165	80
11.42148292	67
11.43819419	84
11.45490546	55
11.47161672	57
11.48832799	59
11.50503926	87
11.52175053	53
11.5384618	70
11.55517307	67
11.57188434	73
11.58859561	83
11.60530688	98
11.62201815	68
11.63872941	62
11.65544068	76
11.67215195	79
11.68886322	64
11.70557449	77
11.72228576	79
11.73899703	94
11.7557083	79
11.77241957	68
11.78913084	89
11.8058421	72
11.82255337	68
11.83926464	55
11.85597591	69
11.87268718	59
11.88939845	67
11.90610972	71
11.92282099	67
11.93953226	68
11.95624353	79
11.97295479	66
11.98966606	55
12.00637733	68
12.0230886	72
12.03979987	72
12.05651114	70
12.07322241	61
12.08993368	56
12.10664495	70
12.12335622	62
12.14006748	64
12.15677875	69
12.17349002	73
12.19020129	71
12.20691256	61
12.22362383	69
12.2403351	58
12.25704637	65
12.27375764	68
12.2904689	57
12.30718017	83
12.32389144	84
12.34060271	67
12.35731398	85
12.37402525	73
12.39073652	62
12.40744779	56
12.42415906	67
12.44087033	64
12.45758159	64
12.47429286	76
12.49100413	76
12.5077154	69
12.52442667	71
12.54113794	61
12.55784921	67
12.57456048	72
12.59127175	61
12.60798302	69
12.62469428	59
12.64140555	64
12.65811682	78
12.67482809	54
12.69153936	72
12.70825063	78
12.7249619	76
12.74167317	56
12.75838444	63
12.77509571	66
12.79180697	54
12.80851824	79
12.82522951	71
12.84194078	69
12.85865205	64
12.87536332	74
12.89207459	62
12.90878586	63
12.92549713	64
12.94220839	66
12.95891966	67
12.97563093	59
12.9923422	69
13.00905347	51
13.02576474	78
13.04247601	68
13.05918728	67
13.07589855	54
13.09260982	72
13.10932108	61
13.12603235	62
13.14274362	62
13.15945489	68
13.17616616	64
13.19287743	74
13.2095887	62
13.22629997	59
13.24301124	67
13.25972251	61
13.27643377	51
13.29314504	58
13.30985631	54
13.32656758	55
13.34327885	49
13.35999012	71
13.37670139	52
13.39341266	57
13.41012393	81
13.4268352	65
13.44354646	64
13.46025773	71
13.476969	58
13.49368027	52
13.51039154	53
13.52710281	66
13.54381408	57
13.56052535	56
13.57723662	63
13.59394789	64
13.61065915	64
13.62737042	59
13.64408169	61
13.66079296	65
13.67750423	68
13.6942155	67
13.71092677	55
13.72763804	40
13.74434931	66
13.76106057	52
13.77777184	56
13.79448311	55
13.81119438	72
13.82790565	61
13.84461692	56
13.86132819	64
13.87803946	54
13.89475073	61
13.911462	40
13.92817326	63
13.94488453	71
13.9615958	64
13.97830707	53
13.99501834	53
14.01172961	70
14.02844088	59
14.04515215	63
14.06186342	53
14.07857469	68
14.09528595	63
14.11199722	54
14.12870849	61
14.14541976	56
14.16213103	66
14.1788423	55
14.19555357	56
14.21226484	56
14.22897611	59
14.24568738	54
14.26239864	54
14.27910991	61
14.29582118	51
14.31253245	55
14.32924372	61
14.34595499	54
14.36266626	56
14.37937753	52
14.3960888	64
14.41280007	58
14.42951133	67
14.4462226	54
14.46293387	61
14.47964514	58
14.49635641	58
14.51306768	52
14.52977895	51
14.54649022	55
14.56320149	57
14.57991275	40
14.59662402	59
14.61333529	61
14.63004656	56
14.64675783	50
14.6634691	51
14.68018037	64
14.69689164	46
14.71360291	53
14.73031418	57
14.74702544	56
14.76373671	55
14.78044798	64
14.79715925	51
14.81387052	56
14.83058179	53
14.84729306	41
14.86400433	67
14.8807156	66
14.89742687	49
14.91413813	53
14.9308494	49
14.94756067	55
14.96427194	57
14.98098321	54
14.99769448	58
15.01440575	59
15.03111702	57
15.04782829	57
15.06453956	61
15.08125082	53
15.09796209	43
15.11467336	53
15.13138463	56
15.1480959	51
15.16480717	57
15.18151844	43
15.19822971	49
15.21494098	61
15.23165224	61
15.24836351	54
15.26507478	49
15.28178605	78
15.29849732	46
15.31520859	56
15.33191986	52
15.34863113	56
15.3653424	42
15.38205367	58
15.39876493	68
15.4154762	54
15.43218747	47
15.44889874	52
15.46561001	56
15.48232128	52
15.49903255	54
15.51574382	57
15.53245509	63
15.54916636	62
15.56587762	51
15.58258889	44
15.59930016	58
15.61601143	63
15.6327227	54
15.64943397	48
15.66614524	54
15.68285651	46
15.69956778	50
15.71627905	55
15.73299031	50
15.74970158	47
15.76641285	54
15.78312412	47
15.79983539	41
15.81654666	52
15.83325793	46
15.8499692	48
15.86668047	40
15.88339174	46
15.900103	61
15.91681427	51
15.93352554	59
15.95023681	59
15.96694808	47
15.98365935	48
16.00037062	57
16.01708189	55
16.03379316	58
16.05050442	44
16.06721569	49
16.08392696	55
16.10063823	46
16.1173495	50
16.13406077	48
16.15077204	40
16.16748331	44
16.18419458	63
16.20090585	58
16.21761711	57
16.23432838	52
16.25103965	44
16.26775092	56
16.28446219	74
16.30117346	56
16.31788473	49
16.334596	43
16.35130727	56
16.36801854	49
16.3847298	57
16.40144107	52
16.41815234	56
16.43486361	65
16.45157488	46
16.46828615	39
16.48499742	58
16.50170869	40
16.51841996	49
16.53513123	46
16.55184249	48
16.56855376	46
16.58526503	37
16.6019763	44
16.61868757	40
16.63539884	38
16.65211011	50
16.66882138	53
16.68553265	52
16.70224391	42
16.71895518	42
16.73566645	39
16.75237772	55
16.76908899	55
16.78580026	52
16.80251153	56
16.8192228	50
16.83593407	58
16.85264534	55
16.8693566	48
16.88606787	49
16.90277914	49
16.91949041	53
16.93620168	37
16.95291295	50
16.96962422	47
16.98633549	47
17.00304676	52
17.01975803	57
17.03646929	50
17.05318056	39
17.06989183	58
17.0866031	38
17.10331437	49
17.12002564	50
17.13673691	59
17.15344818	38
17.17015945	49
17.18687072	52
17.20358198	44
17.22029325	55
17.23700452	56
17.25371579	34
17.27042706	39
17.28713833	44
17.3038496	31
17.32056087	49
17.33727214	44
17.35398341	42
17.37069467	38
17.38740594	32
17.40411721	46
17.42082848	39
17.43753975	33
17.45425102	44
17.47096229	39
17.48767356	55
17.50438483	47
17.52109609	44
17.53780736	44
17.55451863	49
17.5712299	38
17.58794117	54
17.60465244	38
17.62136371	39
17.63807498	46
17.65478625	57
17.67149752	63
17.68820878	37
17.70492005	50
17.72163132	43
17.73834259	40
17.75505386	46
17.77176513	46
17.7884764	42
17.80518767	38
17.82189894	35
17.83861021	37
17.85532147	32
17.87203274	44
17.88874401	57
17.90545528	49
17.92216655	47
17.93887782	54
17.95558909	51
17.97230036	39
17.98901163	53
18.0057229	38
18.02243416	47
18.03914543	39
18.0558567	33
18.07256797	35
18.08927924	50
18.10599051	40
18.12270178	48
18.13941305	41
18.15612432	55
18.17283559	42
18.18954685	46
18.20625812	43
18.22296939	41
18.23968066	42
18.25639193	54
18.2731032	51
18.28981447	44
18.30652574	47
18.32323701	40
18.33994827	44
18.35665954	36
18.37337081	48
18.39008208	34
18.40679335	35
18.42350462	53
18.44021589	50
18.45692716	43
18.47363843	33
18.4903497	32
18.50706096	44
18.52377223	35
18.5404835	46
18.55719477	43
18.57390604	36
18.59061731	48
18.60732858	44
18.62403985	37
18.64075112	35
18.65746239	41
18.67417365	42
18.69088492	39
18.70759619	46
18.72430746	43
18.74101873	42
18.75773	48
18.77444127	37
18.79115254	44
18.80786381	38
18.82457508	39
18.84128634	46
18.85799761	57
18.87470888	41
18.89142015	54
18.90813142	38
18.92484269	34
18.94155396	46
18.95826523	53
18.9749765	48
18.99168776	37
19.00839903	47
19.0251103	37
19.04182157	50
19.05853284	34
19.07524411	47
19.09195538	44
19.10866665	43
19.12537792	42
19.14208919	31
19.15880045	51
19.17551172	33
19.19222299	40
19.20893426	38
19.22564553	40
19.2423568	43
19.25906807	44
19.27577934	37
19.29249061	41
19.30920188	43
19.32591314	38
19.34262441	31
19.35933568	32
19.37604695	38
19.39275822	35
19.40946949	37
19.42618076	46
19.44289203	39
19.4596033	39
19.47631457	40
19.49302583	41
19.5097371	43
19.52644837	38
19.54315964	50
19.55987091	36
19.57658218	44
19.59329345	41
19.61000472	31
19.62671599	40
19.64342726	41
19.66013852	43
19.67684979	43
19.69356106	40
19.71027233	37
19.7269836	39
19.74369487	47
19.76040614	29
19.77711741	42
19.79382868	34
19.81053994	36
19.82725121	27
19.84396248	34
19.86067375	47
19.87738502	38
19.89409629	36
19.91080756	35
19.92751883	41
19.9442301	56
19.96094137	41
19.97765263	27
19.9943639	37
20.01107517	43
20.02778644	38
20.04449771	35
20.06120898	36
20.07792025	29
20.09463152	39
20.11134279	33
20.12805406	35
20.14476532	47
20.16147659	32
20.17818786	42
20.19489913	46
20.2116104	43
20.22832167	43
20.24503294	36
20.26174421	47
20.27845548	32
20.29516675	36
20.31187801	42
20.32858928	41
20.34530055	36
20.36201182	41
20.37872309	49
20.39543436	34
20.41214563	48
20.4288569	28
20.44556817	41
20.46227943	47
20.4789907	40
20.49570197	36
20.51241324	34
20.52912451	23
20.54583578	46
20.56254705	39
20.57925832	39
20.59596959	26
20.61268086	50
20.62939212	31
20.64610339	46
20.66281466	42
20.67952593	33
20.6962372	39
20.71294847	24
20.72965974	44
20.74637101	29
20.76308228	42
20.77979355	48
20.79650481	34
20.81321608	44
20.82992735	21
20.84663862	37
20.86334989	42
20.88006116	41
20.89677243	35
20.9134837	38
20.93019497	37
20.94690624	46
20.9636175	35
20.98032877	32
20.99704004	24
21.01375131	34
21.03046258	33
21.04717385	44
21.06388512	37
21.08059639	34
21.09730766	38
21.11401893	31
21.13073019	44
21.14744146	41
21.16415273	39
21.180864	35
21.19757527	31
21.21428654	35
21.23099781	33
21.24770908	46
21.26442035	40
21.28113161	51
21.29784288	34
21.31455415	42
21.33126542	37
21.34797669	46
21.36468796	29
21.38139923	44
21.3981105	41
21.41482177	44
21.43153304	34
21.4482443	36
21.46495557	34
21.48166684	42
21.49837811	34
21.51508938	41
21.53180065	43
21.54851192	33
21.56522319	33
21.58193446	41
21.59864573	40
21.61535699	28
21.63206826	46
21.64877953	33
21.6654908	38
21.68220207	28
21.69891334	28
21.71562461	38
21.73233588	43
21.74904715	42
21.76575842	36
21.78246968	47
21.79918095	32
21.81589222	42
21.83260349	46
21.84931476	33
21.86602603	36
21.8827373	34
21.89944857	42
21.91615984	32
21.93287111	54
21.94958237	37
21.96629364	31
21.98300491	43
21.99971618	28
22.01642745	41
22.03313872	54
22.04984999	38
22.06656126	31
22.08327253	41
22.09998379	43
22.11669506	51
22.13340633	36
22.1501176	29
22.16682887	29
22.18354014	38
22.20025141	36
22.21696268	33
22.23367395	48
22.25038522	31
22.26709648	37
22.28380775	48
22.30051902	35
22.31723029	31
22.33394156	31
22.35065283	38
22.3673641	41
22.38407537	37
22.40078664	40
22.41749791	36
22.43420917	39
22.45092044	47
22.46763171	33
22.48434298	32
22.50105425	39
22.51776552	28
22.53447679	28
22.55118806	53
22.56789933	34
22.5846106	41
22.60132186	31
22.61803313	41
22.6347444	32
22.65145567	42
22.66816694	41
22.68487821	28
22.70158948	27
22.71830075	28
22.73501202	26
22.75172328	48
22.76843455	38
22.78514582	36
22.80185709	32
22.81856836	32
22.83527963	33
22.8519909	35
22.86870217	36
22.88541344	35
22.90212471	27
22.91883597	32
22.93554724	35
22.95225851	46
22.96896978	38
22.98568105	31
23.00239232	34
23.01910359	29
23.03581486	28
23.05252613	36
23.0692374	35
23.08594866	36
23.10265993	38
23.1193712	37
23.13608247	35
23.15279374	42
23.16950501	33
23.18621628	27
23.20292755	26
23.21963882	35
23.23635009	46
23.25306135	44
23.26977262	36
23.28648389	36
23.30319516	41
23.31990643	29
23.3366177	33
23.35332897	35
23.37004024	36
23.38675151	49
23.40346278	28
23.42017404	39
23.43688531	29
23.45359658	31
23.47030785	27
23.48701912	42
23.50373039	38
23.52044166	41
23.53715293	34
23.5538642	34
23.57057546	31
23.58728673	38
23.603998	41
23.62070927	33
23.63742054	32
23.65413181	38
23.67084308	31
23.68755435	27
23.70426562	50
23.72097689	25
23.73768815	38
23.75439942	40
23.77111069	33
23.78782196	37
23.80453323	27
23.8212445	31
23.83795577	28
23.85466704	23
23.87137831	26
23.88808958	35
23.90480084	35
23.92151211	24
23.93822338	33
23.95493465	29
23.97164592	27
23.98835719	34
24.00506846	24
24.02177973	35
24.038491	22
24.05520227	27
24.07191353	32
24.0886248	41
24.10533607	33
24.12204734	25
24.13875861	36
24.15546988	28
24.17218115	25
24.18889242	35
24.20560369	35
24.22231496	35
24.23902622	34
24.25573749	29
24.27244876	31
24.28916003	39
24.3058713	35
24.32258257	33
24.33929384	32
24.35600511	47
24.37271638	26
24.38942764	35
24.40613891	34
24.42285018	31
24.43956145	35
24.45627272	37
24.47298399	26
24.48969526	33
24.50640653	39
24.5231178	28
24.53982907	39
24.55654033	24
24.5732516	21
24.58996287	36
24.60667414	25
24.62338541	34
24.64009668	33
24.65680795	25
24.67351922	23
24.69023049	24
24.70694176	28
24.72365302	36
24.74036429	25
24.75707556	36
24.77378683	31
24.7904981	26
24.80720937	29
24.82392064	27
24.84063191	31
24.85734318	28
24.87405445	26
24.89076571	34
24.90747698	29
24.92418825	27
24.94089952	35
24.95761079	35
24.97432206	31
24.99103333	24
25.0077446	29
25.02445587	33
25.04116713	33
25.0578784	33
25.07458967	43
25.09130094	33
25.10801221	32
25.12472348	44
25.14143475	26
25.15814602	27
25.17485729	31
25.19156856	33
25.20827982	34
25.22499109	38
25.24170236	32
25.25841363	27
25.2751249	21
25.29183617	35
25.30854744	35
25.32525871	33
25.34196998	28
25.35868125	29
25.37539251	32
25.39210378	31
25.40881505	39
25.42552632	26
25.44223759	37
25.45894886	26
25.47566013	34
25.4923714	29
25.50908267	39
25.52579394	24
25.5425052	35
25.55921647	25
25.57592774	22
25.59263901	24
25.60935028	33
25.62606155	33
25.64277282	47
25.65948409	38
25.67619536	34
25.69290663	26
25.70961789	29
25.72632916	35
25.74304043	33
25.7597517	21
25.77646297	27
25.79317424	20
25.80988551	36
25.82659678	24
25.84330805	38
25.86001931	35
25.87673058	32
25.89344185	36
25.91015312	26
25.92686439	23
25.94357566	32
25.96028693	27
25.9769982	31
25.99370947	35
26.01042074	24
26.027132	26
26.04384327	35
26.06055454	27
26.07726581	32
26.09397708	28
26.11068835	33
26.12739962	39
26.14411089	24
26.16082216	27
26.17753343	28
26.19424469	21
26.21095596	31
26.22766723	27
26.2443785	33
26.26108977	32
26.27780104	43
26.29451231	24
26.31122358	29
26.32793485	27
26.34464612	22
26.36135738	40
26.37806865	33
26.39477992	24
26.41149119	22
26.42820246	28
26.44491373	23
26.461625	25
26.47833627	27
26.49504754	38
26.5117588	31
26.52847007	25
26.54518134	26
26.56189261	31
26.57860388	34
26.59531515	28
26.61202642	19
26.62873769	27
26.64544896	23
26.66216023	28
26.67887149	36
26.69558276	29
26.71229403	28
26.7290053	25
26.74571657	26
26.76242784	32
26.77913911	25
26.79585038	34
26.81256165	33
26.82927292	23
26.84598418	36
26.86269545	22
26.87940672	32
26.89611799	25
26.91282926	27
26.92954053	31
26.9462518	33
26.96296307	29
26.97967434	24
26.99638561	35
27.01309687	22
27.02980814	38
27.04651941	28
27.06323068	25
27.07994195	28
27.09665322	41
27.11336449	34
27.13007576	27
27.14678703	31
27.1634983	26
27.18020956	22
27.19692083	36
27.2136321	29
27.23034337	31
27.24705464	33
27.26376591	24
27.28047718	27
27.29718845	29
27.31389972	33
27.33061098	24
27.34732225	35
27.36403352	34
27.38074479	35
27.39745606	29
27.41416733	25
27.4308786	27
27.44758987	29
27.46430114	35
27.48101241	24
27.49772367	27
27.51443494	26
27.53114621	24
27.54785748	29
27.56456875	21
27.58128002	36
27.59799129	23
27.61470256	26
27.63141383	37
27.6481251	38
27.66483636	26
27.68154763	25
27.6982589	35
27.71497017	23
27.73168144	28
27.74839271	26
27.76510398	38
27.78181525	36
27.79852652	37
27.81523779	25
27.83194905	26
27.84866032	28
27.86537159	29
27.88208286	20
27.89879413	29
27.9155054	29
27.93221667	27
27.94892794	28
27.96563921	32
27.98235048	29
27.99906174	25
28.01577301	25
28.03248428	22
28.04919555	25
28.06590682	27
28.08261809	23
28.09932936	21
28.11604063	27
28.1327519	31
28.14946316	32
28.16617443	23
28.1828857	21
28.19959697	41
28.21630824	23
28.23301951	24
28.24973078	22
28.26644205	27
28.28315332	31
28.29986459	21
28.31657585	34
28.33328712	27
28.34999839	29
28.36670966	28
28.38342093	27
28.4001322	35
28.41684347	31
28.43355474	18
28.45026601	31
28.46697728	32
28.48368854	21
28.50039981	31
28.51711108	28
28.53382235	29
28.55053362	17
28.56724489	23
28.58395616	33
28.60066743	26
28.6173787	20
28.63408997	27
28.65080123	32
28.6675125	22
28.68422377	38
28.70093504	24
28.71764631	23
28.73435758	19
28.75106885	21
28.76778012	28
28.78449139	26
28.80120265	25
28.81791392	35
28.83462519	26
28.85133646	39
28.86804773	37
28.884759	28
28.90147027	19
28.91818154	21
28.93489281	28
28.95160408	29
28.96831534	17
28.98502661	24
29.00173788	19
29.01844915	34
29.03516042	24
29.05187169	32
29.06858296	24
29.08529423	31
29.1020055	24
29.11871677	33
29.13542803	22
29.1521393	27
29.16885057	29
29.18556184	27
29.20227311	22
29.21898438	23
29.23569565	39
29.25240692	31
29.26911819	19
29.28582946	32
29.30254072	22
29.31925199	20
29.33596326	23
29.35267453	23
29.3693858	20
29.38609707	11
29.40280834	27
29.41951961	25
29.43623088	28
29.45294215	20
29.46965341	26
29.48636468	31
29.50307595	24
29.51978722	33
29.53649849	24
29.55320976	31
29.56992103	20
29.5866323	26
29.60334357	29
29.62005483	37
29.6367661	26
29.65347737	28
29.67018864	23
29.68689991	28
29.70361118	32
29.72032245	25
29.73703372	20
29.75374499	29
29.77045626	34
29.78716752	33
29.80387879	25
29.82059006	23
29.83730133	27
29.8540126	28
29.87072387	23
29.88743514	28
29.90414641	31
29.92085768	26
29.93756895	26
29.95428021	26
29.97099148	29
29.98770275	27
30.00441402	27
30.02112529	33
30.03783656	32
30.05454783	19
30.0712591	25
30.08797037	23
30.10468164	24
30.1213929	39
30.13810417	27
30.15481544	26
30.17152671	32
30.18823798	23
30.20494925	24
30.22166052	19
30.23837179	24
30.25508306	25
30.27179432	21
30.28850559	35
30.30521686	27
30.32192813	31
30.3386394	29
30.35535067	31
30.37206194	31
30.38877321	28
30.40548448	22
30.42219575	31
30.43890701	20
30.45561828	23
30.47232955	33
30.48904082	35
30.50575209	19
30.52246336	23
30.53917463	35
30.5558859	21
30.57259717	27
30.58930844	25
30.6060197	24
30.62273097	25
30.63944224	34
30.65615351	18
30.67286478	32
30.68957605	21
30.70628732	32
30.72299859	32
30.73970986	36
30.75642113	31
30.77313239	13
30.78984366	18
30.80655493	32
30.8232662	25
30.83997747	23
30.85668874	24
30.87340001	26
30.89011128	20
30.90682255	21
30.92353382	32
30.94024508	14
30.95695635	21
30.97366762	22
30.99037889	35
31.00709016	29
31.02380143	27
31.0405127	28
31.05722397	28
31.07393524	26
31.0906465	27
31.10735777	29
31.12406904	28
31.14078031	44
31.15749158	14
31.17420285	23
31.19091412	21
31.20762539	14
31.22433666	25
31.24104793	28
31.25775919	33
31.27447046	23
31.29118173	21
31.307893	19
31.32460427	26
31.34131554	14
31.35802681	25
31.37473808	31
31.39144935	22
31.40816062	24
31.42487188	31
31.44158315	22
31.45829442	18
31.47500569	39
31.49171696	33
31.50842823	24
31.5251395	18
31.54185077	25
31.55856204	33
31.57527331	33
31.59198457	22
31.60869584	21
31.62540711	28
31.64211838	20
31.65882965	28
31.67554092	29
31.69225219	34
31.70896346	40
31.72567473	23
31.742386	24
31.75909726	23
31.77580853	23
31.7925198	26
31.80923107	27
31.82594234	28
31.84265361	23
31.85936488	22
31.87607615	19
31.89278742	35
31.90949868	31
31.92620995	31
31.94292122	32
31.95963249	29
31.97634376	26
31.99305503	29
32.0097663	25
32.02647757	32
32.04318884	27
32.05990011	14
32.07661137	36
32.09332264	28
32.11003391	13
32.12674518	25
32.14345645	27
32.16016772	24
32.17687899	31
32.19359026	14
32.21030153	28
32.2270128	24
32.24372406	29
32.26043533	23
32.2771466	25
32.29385787	28
32.31056914	19
32.32728041	22
32.34399168	27
32.36070295	23
32.37741422	26
32.39412549	16
32.41083675	23
32.42754802	34
32.44425929	23
32.46097056	27
32.47768183	19
32.4943931	29
32.51110437	28
32.52781564	23
32.54452691	24
32.56123817	14
32.57794944	25
32.59466071	26
32.61137198	29
32.62808325	24
32.64479452	24
32.66150579	21
32.67821706	34
32.69492833	29
32.7116396	25
32.72835086	22
32.74506213	22
32.7617734	31
32.77848467	25
32.79519594	28
32.81190721	27
32.82861848	17
32.84532975	36
32.86204102	26
32.87875229	23
32.89546355	24
32.91217482	22
32.92888609	20
32.94559736	21
32.96230863	27
32.9790199	31
32.99573117	24
33.01244244	31
33.02915371	31
33.04586498	22
33.06257624	13
33.07928751	26
33.09599878	21
33.11271005	29
33.12942132	20
33.14613259	28
33.16284386	20
33.17955513	31
33.1962664	18
33.21297767	27
33.22968893	25
33.2464002	17
33.26311147	25
33.27982274	29
33.29653401	18
33.31324528	33
33.32995655	28
33.34666782	26
33.36337909	24
33.38009035	29
33.39680162	27
33.41351289	27
33.43022416	31
33.44693543	31
33.4636467	33
33.48035797	27
33.49706924	23
33.51378051	26
33.53049178	33
33.54720304	18
33.56391431	25
33.58062558	24
33.59733685	29
33.61404812	35
33.63075939	21
33.64747066	21
33.66418193	24
33.6808932	25
33.69760447	26
33.71431573	36
33.731027	24
33.74773827	27
33.76444954	20
33.78116081	32
33.79787208	24
33.81458335	21
33.83129462	27
33.84800589	21
33.86471716	24
33.88142842	26
33.89813969	25
33.91485096	17
33.93156223	26
33.9482735	18
33.96498477	17
33.98169604	31
33.99840731	19
34.01511858	26
34.03182984	25
34.04854111	29
34.06525238	24
34.08196365	20
34.09867492	29
34.11538619	29
34.13209746	21
34.14880873	32
34.16552	19
34.18223127	24
34.19894253	22
34.2156538	23
34.23236507	14
34.24907634	23
34.26578761	20
34.28249888	26
34.29921015	23
34.31592142	31
34.33263269	27
34.34934396	24
34.36605522	33
34.38276649	23
34.39947776	22
34.41618903	32
34.4329003	24
34.44961157	26
34.46632284	23
34.48303411	19
34.49974538	21
34.51645665	23
34.53316791	27
34.54987918	23
34.56659045	18
34.58330172	26
34.60001299	28
34.61672426	25
34.63343553	27
34.6501468	36
34.66685807	21
34.68356934	33
34.7002806	28
34.71699187	17
34.73370314	21
34.75041441	23
34.76712568	22
34.78383695	35
34.80054822	34
34.81725949	27
34.83397076	23
34.85068202	28
34.86739329	22
34.88410456	37
34.90081583	22
34.9175271	33
34.93423837	23
34.95094964	24
34.96766091	24
34.98437218	31
35.00108345	25
35.01779471	21
35.03450598	27
35.05121725	24
35.06792852	33
35.08463979	28
35.10135106	26
35.11806233	27
35.1347736	32
35.15148487	26
35.16819614	31
35.1849074	23
35.20161867	31
35.21832994	23
35.23504121	26
35.25175248	23
35.26846375	24
35.28517502	25
35.30188629	32
35.31859756	29
35.33530883	31
35.35202009	19
35.36873136	37
35.38544263	29
35.4021539	21
35.41886517	26
35.43557644	24
35.45228771	29
35.46899898	16
35.48571025	23
35.50242152	22
35.51913278	27
35.53584405	32
35.55255532	29
35.56926659	17
35.58597786	37
35.60268913	31
35.6194004	28
35.63611167	26
35.65282294	33
35.6695342	19
35.68624547	24
35.70295674	31
35.71966801	14
35.73637928	32
35.75309055	27
35.76980182	29
35.78651309	27
35.80322436	24
35.81993563	29
35.83664689	26
35.85335816	24
35.87006943	26
35.8867807	19
35.90349197	28
35.92020324	26
35.93691451	31
35.95362578	28
35.97033705	25
35.98704832	23
36.00375958	20
36.02047085	26
36.03718212	35
36.05389339	20
36.07060466	22
36.08731593	27
36.1040272	16
36.12073847	31
36.13744974	23
36.15416101	22
36.17087227	21
36.18758354	21
36.20429481	22
36.22100608	22
36.23771735	28
36.25442862	23
36.27113989	32
36.28785116	36
36.30456243	23
36.32127369	24
36.33798496	18
36.35469623	31
36.3714075	22
36.38811877	20
36.40483004	22
36.42154131	26
36.43825258	31
36.45496385	26
36.47167512	29
36.48838638	22
36.50509765	24
36.52180892	23
36.53852019	29
36.55523146	31
36.57194273	29
36.588654	26
36.60536527	29
36.62207654	25
36.63878781	20
36.65549907	19
36.67221034	31
36.68892161	27
36.70563288	31
36.72234415	23
36.73905542	20
36.75576669	17
36.77247796	25
36.78918923	23
36.8059005	25
36.82261176	29
36.83932303	21
36.8560343	22
36.87274557	22
36.88945684	21
36.90616811	27
36.92287938	28
36.93959065	26
36.95630192	27
36.97301319	29
36.98972445	16
37.00643572	25
37.02314699	33
37.03985826	21
37.05656953	26
37.0732808	35
37.08999207	21
37.10670334	31
37.12341461	23
37.14012587	19
37.15683714	25
37.17354841	23
37.19025968	21
37.20697095	26
37.22368222	28
37.24039349	29
37.25710476	21
37.27381603	26
37.2905273	26
37.30723856	22
37.32394983	26
37.3406611	29
37.35737237	31
37.37408364	29
37.39079491	28
37.40750618	25
37.42421745	24
37.44092872	21
37.45763999	35
37.47435125	25
37.49106252	26
37.50777379	21
37.52448506	29
37.54119633	27
37.5579076	32
37.57461887	19
37.59133014	21
37.60804141	25
37.62475268	26
37.64146394	26
37.65817521	16
37.67488648	12
37.69159775	21
37.70830902	24
37.72502029	24
37.74173156	26
37.75844283	21
37.7751541	32
37.79186537	28
37.80857663	27
37.8252879	21
37.84199917	25
37.85871044	31
37.87542171	27
37.89213298	20
37.90884425	40
37.92555552	34
37.94226679	27
37.95897805	22
37.97568932	23
37.99240059	33
38.00911186	19
38.02582313	17
38.0425344	17
38.05924567	22
38.07595694	35
38.09266821	22
38.10937948	22
38.12609074	27
38.14280201	22
38.15951328	20
38.17622455	20
38.19293582	26
38.20964709	28
38.22635836	26
38.24306963	33
38.2597809	19
38.27649217	19
38.29320343	19
38.3099147	23
38.32662597	25
38.34333724	24
38.36004851	20
38.37675978	18
38.39347105	29
38.41018232	20
38.42689359	18
38.44360486	26
38.46031612	28
38.47702739	26
38.49373866	32
38.51044993	29
38.5271612	23
38.54387247	21
38.56058374	26
38.57729501	28
38.59400628	28
38.61071754	22
38.62742881	22
38.64414008	32
38.66085135	28
38.67756262	35
38.69427389	27
38.71098516	27
38.72769643	16
38.7444077	23
38.76111897	27
38.77783023	25
38.7945415	19
38.81125277	24
38.82796404	23
38.84467531	28
38.86138658	23
38.87809785	22
38.89480912	27
38.91152039	22
38.92823166	34
38.94494292	21
38.96165419	13
38.97836546	20
38.99507673	32
39.011788	24
39.02849927	24
39.04521054	21
39.06192181	27
39.07863308	22
39.09534435	21
39.11205561	26
39.12876688	23
39.14547815	23
39.16218942	22
39.17890069	23
39.19561196	25
39.21232323	20
39.2290345	16
39.24574577	13
39.26245704	18
39.2791683	29
39.29587957	26
39.31259084	21
39.32930211	24
39.34601338	23
39.36272465	19
39.37943592	26
39.39614719	29
39.41285846	20
39.42956972	26
39.44628099	25
39.46299226	14
39.47970353	28
39.4964148	21
39.51312607	31
39.52983734	31
39.54654861	31
39.56325988	19
39.57997115	21
39.59668241	24
39.61339368	23
39.63010495	32
39.64681622	25
39.66352749	33
39.68023876	27
39.69695003	22
39.7136613	34
39.73037257	23
39.74708384	22
39.7637951	24
39.78050637	20
39.79721764	29
39.81392891	31
39.83064018	19
39.84735145	23
39.86406272	28
39.88077399	31
39.89748526	29
39.91419653	16
39.93090779	20
39.94761906	21
39.96433033	27
39.9810416	31
39.99775287	25
40.01446414	28
40.03117541	22
40.04788668	33
40.06459795	27
40.08130921	16
40.09802048	37
40.11473175	26
40.13144302	35
40.14815429	25
40.16486556	23
40.18157683	22
40.1982881	18
40.21499937	33
40.23171064	27
40.2484219	17
40.26513317	21
40.28184444	19
40.29855571	22
40.31526698	22
40.33197825	23
40.34868952	19
40.36540079	23
40.38211206	24
40.39882333	29
40.41553459	32
40.43224586	18
40.44895713	27
40.4656684	31
40.48237967	22
40.49909094	26
40.51580221	25
40.53251348	27
40.54922475	17
40.56593602	36
40.58264728	28
40.59935855	33
40.61606982	18
40.63278109	29
40.64949236	26
40.66620363	38
40.6829149	28
40.69962617	23
40.71633744	31
40.73304871	40
40.74975997	34
40.76647124	25
40.78318251	31
40.79989378	23
40.81660505	37
40.83331632	23
40.85002759	31
40.86673886	32
40.88345013	19
40.90016139	31
40.91687266	29
40.93358393	28
40.9502952	29
40.96700647	26
40.98371774	25
41.00042901	29
41.01714028	33
41.03385155	26
41.05056282	25
41.06727408	28
41.08398535	37
41.10069662	27
41.11740789	18
41.13411916	25
41.15083043	28
41.1675417	28
41.18425297	25
41.20096424	27
41.21767551	31
41.23438677	32
41.25109804	20
41.26780931	38
41.28452058	26
41.30123185	26
41.31794312	17
41.33465439	21
41.35136566	21
41.36807693	22
41.3847882	23
41.40149946	31
41.41821073	22
41.434922	32
41.45163327	31
41.46834454	21
41.48505581	28
41.50176708	27
41.51847835	25
41.53518962	28
41.55190089	29
41.56861215	35
41.58532342	35
41.60203469	32
41.61874596	25
41.63545723	25
41.6521685	34
41.66887977	37
41.68559104	31
41.70230231	25
41.71901357	27
41.73572484	36
41.75243611	36
41.76914738	28
41.78585865	35
41.80256992	35
41.81928119	29
41.83599246	38
41.85270373	29
41.869415	27
41.88612626	36
41.90283753	46
41.9195488	44
41.93626007	38
41.95297134	21
41.96968261	32
41.98639388	38
42.00310515	32
42.01981642	40
42.03652769	32
42.05323895	27
42.06995022	34
42.08666149	34
42.10337276	27
42.12008403	34
42.1367953	46
42.15350657	49
42.17021784	35
42.18692911	44
42.20364038	32
42.22035164	37
42.23706291	36
42.25377418	38
42.27048545	33
42.28719672	52
42.30390799	43
42.32061926	29
42.33733053	29
42.3540418	43
42.37075306	35
42.38746433	32
42.4041756	39
42.42088687	33
42.43759814	37
42.45430941	31
42.47102068	46
42.48773195	39
42.50444322	24
42.52115449	39
42.53786575	34
42.55457702	39
42.57128829	35
42.58799956	42
42.60471083	43
42.6214221	39
42.63813337	41
42.65484464	36
42.67155591	48
42.68826718	34
42.70497844	36
42.72168971	34
42.73840098	38
42.75511225	32
42.77182352	35
42.78853479	36
42.80524606	40
42.82195733	41
42.8386686	35
42.85537987	50
42.87209113	53
42.8888024	54
42.90551367	42
42.92222494	38
42.93893621	25
42.95564748	29
42.97235875	62
42.98907002	55
43.00578129	44
43.02249256	35
43.03920382	54
43.05591509	37
43.07262636	49
43.08933763	41
43.1060489	47
43.12276017	29
43.13947144	44
43.15618271	49
43.17289398	50
43.18960524	50
43.20631651	38
43.22302778	58
43.23973905	51
43.25645032	46
43.27316159	56
43.28987286	44
43.30658413	54
43.3232954	57
43.34000667	62
43.35671793	56
43.3734292	71
43.39014047	55
43.40685174	52
43.42356301	53
43.44027428	56
43.45698555	59
43.47369682	55
43.49040809	71
43.50711936	57
43.52383062	57
43.54054189	65
43.55725316	82
43.57396443	61
43.5906757	77
43.60738697	73
43.62409824	85
43.64080951	71
43.65752078	71
43.67423205	83
43.69094331	89
43.70765458	87
43.72436585	91
43.74107712	113
43.75778839	87
43.77449966	96
43.79121093	112
43.8079222	123
43.82463347	115
43.84134473	155
43.858056	119
43.87476727	149
43.89147854	154
43.90818981	175
43.92490108	165
43.94161235	175
43.95832362	221
43.97503489	215
43.99174616	225
44.00845742	210
44.02516869	275
44.04187996	254
44.05859123	310
44.0753025	325
44.09201377	321
44.10872504	372
44.12543631	389
44.14214758	400
44.15885885	444
44.17557011	418
44.19228138	477
44.20899265	465
44.22570392	501
44.24241519	540
44.25912646	539
44.27583773	606
44.292549	524
44.30926027	539
44.32597154	491
44.3426828	549
44.35939407	490
44.37610534	476
44.39281661	508
44.40952788	447
44.42623915	435
44.44295042	383
44.45966169	415
44.47637296	357
44.49308423	362
44.50979549	355
44.52650676	349
44.54321803	306
44.5599293	277
44.57664057	304
44.59335184	263
44.61006311	268
44.62677438	266
44.64348565	210
44.66019691	220
44.67690818	250
44.69361945	205
44.71033072	215
44.72704199	244
44.74375326	203
44.76046453	212
44.7771758	239
44.79388707	234
44.81059834	232
44.8273096	222
44.84402087	253
44.86073214	252
44.87744341	282
44.89415468	285
44.91086595	327
44.92757722	338
44.94428849	353
44.96099976	346
44.97771103	382
44.99442229	416
45.01113356	420
45.02784483	415
45.0445561	472
45.06126737	481
45.07797864	459
45.09468991	486
45.11140118	457
45.12811245	503
45.14482372	448
45.16153498	477
45.17824625	496
45.19495752	483
45.21166879	456
45.22838006	465
45.24509133	425
45.2618026	416
45.27851387	390
45.29522514	341
45.31193641	386
45.32864767	354
45.34535894	303
45.36207021	281
45.37878148	296
45.39549275	265
45.41220402	236
45.42891529	212
45.44562656	217
45.46233783	199
45.47904909	164
45.49576036	173
45.51247163	157
45.5291829	158
45.54589417	140
45.56260544	145
45.57931671	117
45.59602798	131
45.61273925	97
45.62945052	115
45.64616178	104
45.66287305	115
45.67958432	97
45.69629559	87
45.71300686	72
45.72971813	86
45.7464294	70
45.76314067	89
45.77985194	79
45.79656321	74
45.81327447	68
45.82998574	56
45.84669701	87
45.86340828	63
45.88011955	67
45.89683082	55
45.91354209	55
45.93025336	53
45.94696463	49
45.9636759	65
45.98038716	50
45.99709843	56
46.0138097	58
46.03052097	55
46.04723224	66
46.06394351	56
46.08065478	44
46.09736605	62
46.11407732	59
46.13078858	40
46.14749985	40
46.16421112	35
46.18092239	44
46.19763366	39
46.21434493	46
46.2310562	55
46.24776747	47
46.26447874	51
46.28119001	40
46.29790127	48
46.31461254	33
46.33132381	39
46.34803508	44
46.36474635	47
46.38145762	42
46.39816889	37
46.41488016	40
46.43159143	52
46.4483027	51
46.46501396	39
46.48172523	26
46.4984365	33
46.51514777	28
46.53185904	38
46.54857031	25
46.56528158	39
46.58199285	34
46.59870412	40
46.61541539	41
46.63212665	42
46.64883792	40
46.66554919	34
46.68226046	50
46.69897173	44
46.715683	42
46.73239427	21
46.74910554	35
46.76581681	39
46.78252808	27
46.79923934	27
46.81595061	26
46.83266188	35
46.84937315	37
46.86608442	23
46.88279569	36
46.89950696	29
46.91621823	34
46.9329295	36
46.94964076	26
46.96635203	39
46.9830633	40
46.99977457	33
47.01648584	33
47.03319711	29
47.04990838	26
47.06661965	41
47.08333092	35
47.10004219	31
47.11675345	25
47.13346472	36
47.15017599	32
47.16688726	46
47.18359853	35
47.2003098	48
47.21702107	26
47.23373234	25
47.25044361	32
47.26715488	34
47.28386614	23
47.30057741	29
47.31728868	36
47.33399995	31
47.35071122	29
47.36742249	25
47.38413376	28
47.40084503	27
47.4175563	26
47.43426757	38
47.45097883	33
47.4676901	14
47.48440137	27
47.50111264	24
47.51782391	26
47.53453518	24
47.55124645	27
47.56795772	35
47.58466899	24
47.60138025	23
47.61809152	36
47.63480279	27
47.65151406	31
47.66822533	35
47.6849366	32
47.70164787	25
47.71835914	24
47.73507041	23
47.75178168	32
47.76849294	26
47.78520421	27
47.80191548	27
47.81862675	29
47.83533802	31
47.85204929	25
47.86876056	24
47.88547183	32
47.9021831	31
47.91889437	24
47.93560563	35
47.9523169	16
47.96902817	27
47.98573944	29
48.00245071	27
48.01916198	43
48.03587325	33
48.05258452	24
48.06929579	35
48.08600706	25
48.10271832	24
48.11942959	18
48.13614086	33
48.15285213	27
48.1695634	23
48.18627467	50
48.20298594	26
48.21969721	34
48.23640848	37
48.25311975	29
48.26983101	23
48.28654228	28
48.30325355	35
48.31996482	33
48.33667609	36
48.35338736	17
48.37009863	24
48.3868099	25
48.40352117	25
48.42023243	31
48.4369437	39
48.45365497	24
48.47036624	24
48.48707751	20
48.50378878	16
48.52050005	27
48.53721132	27
48.55392259	26
48.57063386	31
48.58734512	26
48.60405639	29
48.62076766	37
48.63747893	31
48.6541902	27
48.67090147	26
48.68761274	22
48.70432401	28
48.72103528	23
48.73774655	26
48.75445781	35
48.77116908	25
48.78788035	28
48.80459162	22
48.82130289	24
48.83801416	31
48.85472543	32
48.8714367	26
48.88814797	28
48.90485924	33
48.9215705	31
48.93828177	23
48.95499304	23
48.97170431	31
48.98841558	31
49.00512685	27
49.02183812	36
49.03854939	37
49.05526066	23
49.07197193	19
49.08868319	18
49.10539446	32
49.12210573	25
49.138817	28
49.15552827	27
49.17223954	29
49.18895081	39
49.20566208	23
49.22237335	36
49.23908461	33
49.25579588	24
49.27250715	35
49.28921842	24
49.30592969	28
49.32264096	41
49.33935223	21
49.3560635	42
49.37277477	28
49.38948604	39
49.4061973	29
49.42290857	29
49.43961984	34
49.45633111	31
49.47304238	28
49.48975365	41
49.50646492	26
49.52317619	31
49.53988746	29
49.55659873	28
49.57330999	31
49.59002126	31
49.60673253	21
49.6234438	21
49.64015507	42
49.65686634	28
49.67357761	42
49.69028888	26
49.70700015	31
49.72371142	36
49.74042268	32
49.75713395	44
49.77384522	34
49.79055649	40
49.80726776	24
49.82397903	43
49.8406903	40
49.85740157	38
49.87411284	37
49.8908241	25
49.90753537	35
49.92424664	46
49.94095791	38
49.95766918	37
49.97438045	31
49.99109172	50
50.00780299	36
50.02451426	43
50.04122553	31
50.05793679	36
50.07464806	33
50.09135933	28
50.1080706	43
50.12478187	31
50.14149314	40
50.15820441	36
50.17491568	49
50.19162695	31
50.20833822	39
50.22504948	40
50.24176075	33
50.25847202	39
50.27518329	52
50.29189456	44
50.30860583	44
50.3253171	47
50.34202837	36
50.35873964	42
50.37545091	40
50.39216217	48
50.40887344	54
50.42558471	48
50.44229598	47
50.45900725	54
50.47571852	62
50.49242979	56
50.50914106	34
50.52585233	58
50.5425636	49
50.55927486	44
50.57598613	59
50.5926974	67
50.60940867	53
50.62611994	65
50.64283121	64
50.65954248	65
50.67625375	64
50.69296502	74
50.70967628	87
50.72638755	74
50.74309882	80
50.75981009	79
50.77652136	70
50.79323263	82
50.8099439	83
50.82665517	97
50.84336644	101
50.86007771	102
50.87678897	86
50.89350024	101
50.91021151	100
50.92692278	114
50.94363405	101
50.96034532	100
50.97705659	97
50.99376786	111
51.01047913	146
51.0271904	108
51.04390166	98
51.06061293	125
51.0773242	140
51.09403547	134
51.11074674	134
51.12745801	141
51.14416928	139
51.16088055	135
51.17759182	146
51.19430309	125
51.21101435	148
51.22772562	144
51.24443689	131
51.26114816	144
51.27785943	143
51.2945707	154
51.31128197	140
51.32799324	145
51.34470451	135
51.36141578	123
51.37812704	131
51.39483831	138
51.41154958	122
51.42826085	102
51.44497212	116
51.46168339	95
51.47839466	119
51.49510593	110
51.5118172	89
51.52852846	87
51.54523973	81
51.561951	92
51.57866227	76
51.59537354	98
51.61208481	84
51.62879608	80
51.64550735	85
51.66221862	71
51.67892989	87
51.69564115	74
51.71235242	76
51.72906369	70
51.74577496	56
51.76248623	61
51.7791975	48
51.79590877	50
51.81262004	70
51.82933131	56
51.84604258	56
51.86275384	50
51.87946511	53
51.89617638	49
51.91288765	54
51.92959892	37
51.94631019	52
51.96302146	52
51.97973273	42
51.996444	36
52.01315527	50
52.02986653	41
52.0465778	41
52.06328907	44
52.08000034	48
52.09671161	39
52.11342288	31
52.13013415	36
52.14684542	39
52.16355669	41
52.18026795	31
52.19697922	49
52.21369049	35
52.23040176	52
52.24711303	24
52.2638243	32
52.28053557	39
52.29724684	33
52.31395811	37
52.33066938	41
52.34738064	35
52.36409191	38
52.38080318	32
52.39751445	44
52.41422572	27
52.43093699	31
52.44764826	38
52.46435953	28
52.4810708	29
52.49778207	31
52.51449333	27
52.5312046	29
52.54791587	32
52.56462714	34
52.58133841	34
52.59804968	40
52.61476095	25
52.63147222	22
52.64818349	28
52.66489476	29
52.68160602	21
52.69831729	32
52.71502856	23
52.73173983	20
52.7484511	41
52.76516237	27
52.78187364	35
52.79858491	37
52.81529618	33
52.83200745	23
52.84871871	29
52.86542998	24
52.88214125	19
52.89885252	28
52.91556379	33
52.93227506	25
52.94898633	27
52.9656976	28
52.98240887	26
52.99912013	28
53.0158314	22
53.03254267	26
53.04925394	29
53.06596521	20
53.08267648	19
53.09938775	19
53.11609902	14
53.13281029	21
53.14952156	34
53.16623282	26
53.18294409	23
53.19965536	25
53.21636663	23
53.2330779	19
53.24978917	24
53.26650044	28
53.28321171	23
53.29992298	21
53.31663425	31
53.33334551	26
53.35005678	31
53.36676805	25
53.38347932	25
53.40019059	18
53.41690186	35
53.43361313	18
53.4503244	16
53.46703567	16
53.48374694	26
53.5004582	24
53.51716947	35
53.53388074	26
53.55059201	28
53.56730328	27
53.58401455	26
53.60072582	14
53.61743709	14
53.63414836	21
53.65085962	19
53.66757089	21
53.68428216	24
53.70099343	11
53.7177047	26
53.73441597	35
53.75112724	24
53.76783851	24
53.78454978	26
53.80126105	20
53.81797231	31
53.83468358	29
53.85139485	17
53.86810612	20
53.88481739	16
53.90152866	20
53.91823993	19
53.9349512	22
53.95166247	25
53.96837374	19
53.985085	22
54.00179627	17
54.01850754	29
54.03521881	20
54.05193008	24
54.06864135	27
54.08535262	25
54.10206389	24
54.11877516	24
54.13548643	23
54.15219769	28
54.16890896	16
54.18562023	26
54.2023315	16
54.21904277	28
54.23575404	19
54.25246531	20
54.26917658	36
54.28588785	29
54.30259912	17
54.31931038	23
54.33602165	22
54.35273292	13
54.36944419	17
54.38615546	23
54.40286673	25
54.419578	36
54.43628927	21
54.45300054	19
54.4697118	24
54.48642307	21
54.50313434	16
54.51984561	28
54.53655688	24
54.55326815	16
54.56997942	16
54.58669069	14
54.60340196	22
54.62011323	20
54.63682449	20
54.65353576	17
54.67024703	26
54.6869583	16
54.70366957	27
54.72038084	25
54.73709211	21
54.75380338	18
54.77051465	25
54.78722592	26
54.80393718	13
54.82064845	14
54.83735972	16
54.85407099	23
54.87078226	21
54.88749353	25
54.9042048	21
54.92091607	19
54.93762734	24
54.95433861	24
54.97104987	12
54.98776114	18
55.00447241	23
55.02118368	29
55.03789495	22
55.05460622	26
55.07131749	22
55.08802876	22
55.10474003	21
55.1214513	29
55.13816256	20
55.15487383	25
55.1715851	29
55.18829637	19
55.20500764	31
55.22171891	19
55.23843018	29
55.25514145	17
55.27185272	23
55.28856398	24
55.30527525	19
55.32198652	18
55.33869779	17
55.35540906	22
55.37212033	23
55.3888316	29
55.40554287	21
55.42225414	23
55.43896541	27
55.45567667	18
55.47238794	28
55.48909921	26
55.50581048	27
55.52252175	20
55.53923302	17
55.55594429	19
55.57265556	34
55.58936683	26
55.6060781	23
55.62278936	22
55.63950063	26
55.6562119	21
55.67292317	14
55.68963444	22
55.70634571	14
55.72305698	21
55.73976825	25
55.75647952	16
55.77319079	20
55.78990205	25
55.80661332	23
55.82332459	19
55.84003586	25
55.85674713	28
55.8734584	17
55.89016967	21
55.90688094	17
55.92359221	24
55.94030347	21
55.95701474	19
55.97372601	27
55.99043728	33
56.00714855	20
56.02385982	19
56.04057109	21
56.05728236	13
56.07399363	14
56.0907049	17
56.10741616	18
56.12412743	21
56.1408387	25
56.15754997	21
56.17426124	23
56.19097251	23
56.20768378	20
56.22439505	23
56.24110632	27
56.25781759	29
56.27452885	19
56.29124012	25
56.30795139	23
56.32466266	19
56.34137393	10
56.3580852	31
56.37479647	19
56.39150774	10
56.40821901	16
56.42493028	24
56.44164154	21
56.45835281	14
56.47506408	17
56.49177535	20
56.50848662	24
56.52519789	24
56.54190916	25
56.55862043	24
56.5753317	14
56.59204297	20
56.60875423	19
56.6254655	16
56.64217677	18
56.65888804	24
56.67559931	24
56.69231058	12
56.70902185	21
56.72573312	25
56.74244439	26
56.75915565	21
56.77586692	20
56.79257819	21
56.80928946	24
56.82600073	17
56.842712	23
56.85942327	23
56.87613454	25
56.89284581	18
56.90955708	24
56.92626834	27
56.94297961	21
56.95969088	13
56.97640215	13
56.99311342	19
57.00982469	16
57.02653596	24
57.04324723	23
57.0599585	22
57.07666977	21
57.09338103	19
57.1100923	22
57.12680357	17
57.14351484	19
57.16022611	18
57.17693738	20
57.19364865	24
57.21035992	17
57.22707119	29
57.24378246	17
57.26049372	21
57.27720499	16
57.29391626	25
57.31062753	18
57.3273388	27
57.34405007	16
57.36076134	16
57.37747261	18
57.39418388	20
57.41089514	35
57.42760641	22
57.44431768	17
57.46102895	20
57.47774022	21
57.49445149	11
57.51116276	19
57.52787403	21
57.5445853	25
57.56129657	25
57.57800783	17
57.5947191	24
57.61143037	20
57.62814164	12
57.64485291	26
57.66156418	22
57.67827545	26
57.69498672	19
57.71169799	21
57.72840926	20
57.74512052	25
57.76183179	23
57.77854306	20
57.79525433	21
57.8119656	21
57.82867687	28
57.84538814	25
57.86209941	22
57.87881068	27
57.89552195	24
57.91223321	16
57.92894448	22
57.94565575	22
57.96236702	24
57.97907829	23
57.99578956	23
58.01250083	14
58.0292121	17
58.04592337	18
58.06263464	22
58.0793459	21
58.09605717	24
58.11276844	17
58.12947971	22
58.14619098	19
58.16290225	18
58.17961352	22
58.19632479	27
58.21303606	19
58.22974732	27
58.24645859	31
58.26316986	14
58.27988113	18
58.2965924	16
58.31330367	22
58.33001494	19
58.34672621	17
58.36343748	28
58.38014875	18
58.39686001	18
58.41357128	28
58.43028255	17
58.44699382	25
58.46370509	21
58.48041636	23
58.49712763	25
58.5138389	32
58.53055017	9
58.54726144	27
58.5639727	25
58.58068397	34
58.59739524	20
58.61410651	16
58.63081778	20
58.64752905	27
58.66424032	19
58.68095159	20
58.69766286	17
58.71437413	19
58.73108539	24
58.74779666	23
58.76450793	16
58.7812192	22
58.79793047	25
58.81464174	13
58.83135301	10
58.84806428	28
58.86477555	21
58.88148682	18
58.89819808	10
58.91490935	22
58.93162062	21
58.94833189	21
58.96504316	21
58.98175443	26
58.9984657	19
59.01517697	13
59.03188824	14
59.0485995	18
59.06531077	21
59.08202204	21
59.09873331	19
59.11544458	14
59.13215585	20
59.14886712	21
59.16557839	20
59.18228966	21
59.19900093	18
59.21571219	20
59.23242346	20
59.24913473	27
59.265846	19
59.28255727	19
59.29926854	22
59.31597981	20
59.33269108	34
59.34940235	16
59.36611362	25
59.38282488	14
59.39953615	26
59.41624742	16
59.43295869	21
59.44966996	28
59.46638123	25
59.4830925	11
59.49980377	20
59.51651504	18
59.53322631	22
59.54993757	11
59.56664884	19
59.58336011	28
59.60007138	16
59.61678265	19
59.63349392	17
59.65020519	11
59.66691646	23
59.68362773	21
59.70033899	22
59.71705026	24
59.73376153	21
59.7504728	17
59.76718407	17
59.78389534	22
59.80060661	14
59.81731788	16
59.83402915	11
59.85074042	23
59.86745168	27
59.88416295	18
59.90087422	26
59.91758549	23
59.93429676	17
59.95100803	20
59.9677193	20
59.98443057	14
60.00114184	22
60.01785311	17
60.03456437	20
60.05127564	25
60.06798691	16
60.08469818	16
60.10140945	24
60.11812072	23
60.13483199	18
60.15154326	22
60.16825453	23
60.1849658	18
60.20167706	17
60.21838833	16
60.2350996	23
60.25181087	14
60.26852214	22
60.28523341	25
60.30194468	21
60.31865595	21
60.33536722	28
60.35207849	14
60.36878975	16
60.38550102	25
60.40221229	20
60.41892356	27
60.43563483	17
60.4523461	22
60.46905737	16
60.48576864	12
60.50247991	19
60.51919117	21
60.53590244	22
60.55261371	14
60.56932498	21
60.58603625	25
60.60274752	20
60.61945879	20
60.63617006	23
60.65288133	22
60.6695926	32
60.68630386	25
60.70301513	13
60.7197264	36
60.73643767	21
60.75314894	20
60.76986021	18
60.78657148	16
60.80328275	23
60.81999402	23
60.83670529	32
60.85341655	29
60.87012782	16
60.88683909	22
60.90355036	21
60.92026163	17
60.9369729	27
60.95368417	25
60.97039544	10
60.98710671	13
61.00381798	24
61.02052924	31
61.03724051	16
61.05395178	16
61.07066305	20
61.08737432	18
61.10408559	18
61.12079686	22
61.13750813	35
61.1542194	21
61.17093066	18
61.18764193	24
61.2043532	20
61.22106447	17
61.23777574	24
61.25448701	29
61.27119828	22
61.28790955	17
61.30462082	10
61.32133209	26
61.33804335	21
61.35475462	19
61.37146589	20
61.38817716	22
61.40488843	21
61.4215997	14
61.43831097	24
61.45502224	33
61.47173351	26
61.48844478	21
61.50515604	19
61.52186731	22
61.53857858	27
61.55528985	24
61.57200112	23
61.58871239	18
61.60542366	21
61.62213493	27
61.6388462	24
61.65555747	35
61.67226873	33
61.68898	26
61.70569127	21
61.72240254	25
61.73911381	37
61.75582508	18
61.77253635	20
61.78924762	17
61.80595889	29
61.82267016	25
61.83938142	21
61.85609269	19
61.87280396	34
61.88951523	22
61.9062265	26
61.92293777	13
61.93964904	24
61.95636031	29
61.97307158	27
61.98978284	13
62.00649411	26
62.02320538	31
62.03991665	18
62.05662792	33
62.07333919	23
62.09005046	23
62.10676173	26
62.123473	20
62.14018427	22
62.15689553	23
62.1736068	28
62.19031807	18
62.20702934	24
62.22374061	22
62.24045188	26
62.25716315	33
62.27387442	20
62.29058569	27
62.30729696	21
62.32400822	26
62.34071949	11
62.35743076	17
62.37414203	35
62.3908533	21
62.40756457	23
62.42427584	25
62.44098711	38
62.45769838	32
62.47440965	22
62.49112091	28
62.50783218	20
62.52454345	28
62.54125472	29
62.55796599	20
62.57467726	26
62.59138853	26
62.6080998	22
62.62481107	21
62.64152234	19
62.6582336	16
62.67494487	27
62.69165614	16
62.70836741	23
62.72507868	28
62.74178995	24
62.75850122	28
62.77521249	27
62.79192376	32
62.80863502	25
62.82534629	29
62.84205756	20
62.85876883	32
62.8754801	14
62.89219137	29
62.90890264	23
62.92561391	29
62.94232518	19
62.95903645	21
62.97574771	34
62.99245898	34
63.00917025	26
63.02588152	17
63.04259279	27
63.05930406	22
63.07601533	23
63.0927266	32
63.10943787	19
63.12614914	19
63.1428604	27
63.15957167	18
63.17628294	25
63.19299421	20
63.20970548	25
63.22641675	16
63.24312802	28
63.25983929	37
63.27655056	29
63.29326183	21
63.30997309	29
63.32668436	23
63.34339563	29
63.3601069	32
63.37681817	27
63.39352944	19
63.41024071	19
63.42695198	19
63.44366325	31
63.46037451	24
63.47708578	31
63.49379705	22
63.51050832	27
63.52721959	38
63.54393086	29
63.56064213	24
63.5773534	26
63.59406467	39
63.61077594	36
63.6274872	32
63.64419847	33
63.66090974	34
63.67762101	31
63.69433228	33
63.71104355	40
63.72775482	33
63.74446609	38
63.76117736	37
63.77788863	28
63.79459989	25
63.81131116	33
63.82802243	25
63.8447337	43
63.86144497	31
63.87815624	40
63.89486751	34
63.91157878	29
63.92829005	37
63.94500132	42
63.96171258	19
63.97842385	35
63.99513512	23
64.01184639	34
64.02855766	24
64.04526893	40
64.0619802	42
64.07869147	35
64.09540274	42
64.11211401	31
64.12882527	38
64.14553654	36
64.16224781	39
64.17895908	46
64.19567035	39
64.21238162	41
64.22909289	47
64.24580416	41
64.26251543	43
64.27922669	64
64.29593796	37
64.31264923	63
64.3293605	54
64.34607177	61
64.36278304	78
64.37949431	67
64.39620558	52
64.41291685	58
64.42962812	53
64.44633938	63
64.46305065	64
64.47976192	64
64.49647319	58
64.51318446	94
64.52989573	69
64.546607	72
64.56331827	86
64.58002954	74
64.59674081	85
64.61345207	85
64.63016334	94
64.64687461	95
64.66358588	104
64.68029715	93
64.69700842	88
64.71371969	108
64.73043096	112
64.74714223	145
64.7638535	135
64.78056476	115
64.79727603	144
64.8139873	148
64.83069857	135
64.84740984	154
64.86412111	163
64.88083238	154
64.89754365	179
64.91425492	170
64.93096619	179
64.94767745	186
64.96438872	177
64.98109999	155
64.99781126	185
65.01452253	190
65.0312338	195
65.04794507	183
65.06465634	197
65.08136761	191
65.09807887	230
65.11479014	190
65.13150141	190
65.14821268	215
65.16492395	194
65.18163522	202
65.19834649	207
65.21505776	194
65.23176903	205
65.2484803	190
65.26519156	205
65.28190283	206
65.2986141	202
65.31532537	194
65.33203664	189
65.34874791	169
65.36545918	209
65.38217045	205
65.39888172	212
65.41559299	194
65.43230425	177
65.44901552	190
65.46572679	175
65.48243806	184
65.49914933	171
65.5158606	156
65.53257187	155
65.54928314	158
65.56599441	165
65.58270568	152
65.59941694	153
65.61612821	122
65.63283948	155
65.64955075	126
65.66626202	155
65.68297329	123
65.69968456	131
65.71639583	115
65.7331071	139
65.74981836	122
65.76652963	129
65.7832409	124
65.79995217	103
65.81666344	112
65.83337471	115
65.85008598	110
65.86679725	100
65.88350852	86
65.90021979	85
65.91693105	88
65.93364232	114
65.95035359	74
65.96706486	79
65.98377613	97
66.0004874	87
66.01719867	74
66.03390994	71
66.05062121	73
66.06733248	69
66.08404374	73
66.10075501	70
66.11746628	65
66.13417755	62
66.15088882	68
66.16760009	65
66.18431136	67
66.20102263	47
66.2177339	55
66.23444517	58
66.25115643	48
66.2678677	70
66.28457897	62
66.30129024	46
66.31800151	51
66.33471278	43
66.35142405	42
66.36813532	47
66.38484659	54
66.40155786	28
66.41826912	55
66.43498039	42
66.45169166	48
66.46840293	44
66.4851142	40
66.50182547	44
66.51853674	43
66.53524801	35
66.55195928	42
66.56867054	39
66.58538181	37
66.60209308	47
66.61880435	31
66.63551562	34
66.65222689	24
66.66893816	37
66.68564943	29
66.7023607	33
66.71907197	34
66.73578323	38
66.7524945	28
66.76920577	37
66.78591704	31
66.80262831	33
66.81933958	35
66.83605085	25
66.85276212	33
66.86947339	26
66.88618466	35
66.90289592	25
66.91960719	37
66.93631846	31
66.95302973	35
66.969741	39
66.98645227	36
67.00316354	19
67.01987481	32
67.03658608	22
67.05329735	36
67.07000861	23
67.08671988	28
67.10343115	23
67.12014242	25
67.13685369	28
67.15356496	29
67.17027623	19
67.1869875	36
67.20369877	22
67.22041003	26
67.2371213	20
67.25383257	25
67.27054384	24
67.28725511	28
67.30396638	34
67.32067765	26
67.33738892	26
67.35410019	31
67.37081146	21
67.38752272	26
67.40423399	24
67.42094526	24
67.43765653	19
67.4543678	27
67.47107907	37
67.48779034	26
67.50450161	20
67.52121288	19
67.53792415	21
67.55463541	31
67.57134668	25
67.58805795	34
67.60476922	27
67.62148049	26
67.63819176	27
67.65490303	22
67.6716143	32
67.68832557	17
67.70503684	27
67.7217481	32
67.73845937	20
67.75517064	20
67.77188191	18
67.78859318	26
67.80530445	25
67.82201572	20
67.83872699	23
67.85543826	22
67.87214953	20
67.88886079	23
67.90557206	21
67.92228333	24
67.9389946	28
67.95570587	21
67.97241714	31
67.98912841	20
68.00583968	14
68.02255095	22
68.03926221	27
68.05597348	27
68.07268475	27
68.08939602	18
68.10610729	23
68.12281856	17
68.13952983	21
68.1562411	23
68.17295237	14
68.18966364	23
68.2063749	27
68.22308617	19
68.23979744	20
68.25650871	13
68.27321998	16
68.28993125	16
68.30664252	18
68.32335379	16
68.34006506	22
68.35677633	32
68.37348759	27
68.39019886	17
68.40691013	21
68.4236214	18
68.44033267	19
68.45704394	26
68.47375521	32
68.49046648	20
68.50717775	26
68.52388902	26
68.54060028	32
68.55731155	29
68.57402282	26
68.59073409	20
68.60744536	26
68.62415663	32
68.6408679	26
68.65757917	24
68.67429044	21
68.69100171	10
68.70771297	19
68.72442424	27
68.74113551	18
68.75784678	23
68.77455805	19
68.79126932	22
68.80798059	23
68.82469186	24
68.84140313	35
68.85811439	24
68.87482566	26
68.89153693	18
68.9082482	27
68.92495947	32
68.94167074	26
68.95838201	22
68.97509328	25
68.99180455	24
69.00851582	16
69.02522708	24
69.04193835	19
69.05864962	17
69.07536089	14
69.09207216	17
69.10878343	19
69.1254947	16
69.14220597	25
69.15891724	18
69.17562851	34
69.19233977	20
69.20905104	32
69.22576231	16
69.24247358	29
69.25918485	18
69.27589612	17
69.29260739	20
69.30931866	26
69.32602993	24
69.3427412	28
69.35945246	17
69.37616373	20
69.392875	23
69.40958627	18
69.42629754	21
69.44300881	13
69.45972008	20
69.47643135	27
69.49314262	24
69.50985388	26
69.52656515	18
69.54327642	23
69.55998769	21
69.57669896	41
69.59341023	19
69.6101215	19
69.62683277	19
69.64354404	21
69.66025531	21
69.67696657	21
69.69367784	23
69.71038911	21
69.72710038	25
69.74381165	16
69.76052292	26
69.77723419	20
69.79394546	19
69.81065673	11
69.827368	22
69.84407926	24
69.86079053	22
69.8775018	20
69.89421307	23
69.91092434	16
69.92763561	27
69.94434688	33
69.96105815	22
69.97776942	26
69.99448069	22
70.01119195	20
70.02790322	18
70.04461449	20
70.06132576	22
70.07803703	27
70.0947483	20
70.11145957	6
70.12817084	22
70.14488211	31
70.16159338	20
70.17830464	32
70.19501591	25
70.21172718	22
70.22843845	20
70.24514972	21
70.26186099	22
70.27857226	29
70.29528353	31
70.3119948	24
70.32870606	24
70.34541733	20
70.3621286	31
70.37883987	19
70.39555114	17
70.41226241	17
70.42897368	19
70.44568495	26
70.46239622	23
70.47910749	22
70.49581875	22
70.51253002	20
70.52924129	24
70.54595256	22
70.56266383	18
70.5793751	29
70.59608637	31
70.61279764	27
70.62950891	22
70.64622018	14
70.66293144	24
70.67964271	26
70.69635398	22
70.71306525	32
70.72977652	25
70.74648779	17
70.76319906	35
70.77991033	23
70.7966216	19
70.81333287	14
70.83004413	16
70.8467554	20
70.86346667	18
70.88017794	23
70.89688921	19
70.91360048	26
70.93031175	20
70.94702302	18
70.96373429	26
70.98044555	27
70.99715682	22
71.01386809	28
71.03057936	27
71.04729063	27
71.0640019	31
71.08071317	32
71.09742444	28
71.11413571	22
71.13084698	25
71.14755824	24
71.16426951	18
71.18098078	22
71.19769205	29
71.21440332	17
71.23111459	21
71.24782586	28
71.26453713	20
71.2812484	33
71.29795967	27
71.31467093	34
71.3313822	37
71.34809347	26
71.36480474	24
71.38151601	28
71.39822728	22
71.41493855	29
71.43164982	36
71.44836109	23
71.46507236	34
71.48178362	20
71.49849489	26
71.51520616	23
71.53191743	29
71.5486287	18
71.56533997	23
71.58205124	19
71.59876251	20
71.61547378	18
71.63218505	32
71.64889631	40
71.66560758	26
71.68231885	19
71.69903012	31
71.71574139	33
71.73245266	26
71.74916393	24
71.7658752	31
71.78258647	23
71.79929773	26
71.816009	26
71.83272027	29
71.84943154	26
71.86614281	21
71.88285408	27
71.89956535	18
71.91627662	27
71.93298789	32
71.94969916	28
71.96641042	18
71.98312169	26
71.99983296	21
72.01654423	27
72.0332555	24
72.04996677	27
72.06667804	25
72.08338931	12
72.10010058	35
72.11681185	33
72.13352311	28
72.15023438	17
72.16694565	27
72.18365692	23
72.20036819	28
72.21707946	29
72.23379073	31
72.250502	31
72.26721327	36
72.28392454	28
72.3006358	21
72.31734707	19
72.33405834	27
72.35076961	37
72.36748088	18
72.38419215	40
72.40090342	24
72.41761469	29
72.43432596	23
72.45103723	20
72.46774849	29
72.48445976	24
72.50117103	29
72.5178823	25
72.53459357	26
72.55130484	37
72.56801611	26
72.58472738	25
72.60143865	32
72.61814991	27
72.63486118	25
72.65157245	22
72.66828372	26
72.68499499	19
72.70170626	24
72.71841753	35
72.7351288	29
72.75184007	19
72.76855134	25
72.7852626	20
72.80197387	26
72.81868514	32
72.83539641	35
72.85210768	21
72.86881895	26
72.88553022	22
72.90224149	24
72.91895276	23
72.93566403	33
72.95237529	24
72.96908656	33
72.98579783	24
73.0025091	35
73.01922037	29
73.03593164	34
73.05264291	35
73.06935418	29
73.08606545	28
73.10277672	22
73.11948798	33
73.13619925	31
73.15291052	40
73.16962179	31
73.18633306	39
73.20304433	35
73.2197556	29
73.23646687	31
73.25317814	31
73.2698894	32
73.28660067	38
73.30331194	24
73.32002321	34
73.33673448	38
73.35344575	37
73.37015702	32
73.38686829	29
73.40357956	26
73.42029083	43
73.43700209	27
73.45371336	32
73.47042463	39
73.4871359	25
73.50384717	31
73.52055844	38
73.53726971	33
73.55398098	36
73.57069225	41
73.58740352	29
73.60411478	46
73.62082605	34
73.63753732	31
73.65424859	37
73.67095986	48
73.68767113	33
73.7043824	38
73.72109367	40
73.73780494	34
73.75451621	37
73.77122747	37
73.78793874	34
73.80465001	40
73.82136128	42
73.83807255	39
73.85478382	44
73.87149509	49
73.88820636	46
73.90491763	36
73.9216289	38
73.93834016	49
73.95505143	46
73.9717627	32
73.98847397	55
74.00518524	52
74.02189651	55
74.03860778	52
74.05531905	54
74.07203032	65
74.08874158	44
74.10545285	47
74.12216412	65
74.13887539	55
74.15558666	54
74.17229793	51
74.1890092	66
74.20572047	56
74.22243174	57
74.23914301	61
74.25585427	56
74.27256554	63
74.28927681	59
74.30598808	67
74.32269935	59
74.33941062	65
74.35612189	57
74.37283316	77
74.38954443	73
74.4062557	66
74.42296696	73
74.43967823	81
74.4563895	77
74.47310077	86
74.48981204	83
74.50652331	83
74.52323458	87
74.53994585	89
74.55665712	131
74.57336839	103
74.59007965	100
74.60679092	88
74.62350219	101
74.64021346	127
74.65692473	101
74.673636	133
74.69034727	123
74.70705854	131
74.72376981	135
74.74048107	131
74.75719234	148
74.77390361	173
74.79061488	147
74.80732615	160
74.82403742	170
74.84074869	190
74.85745996	207
74.87417123	214
74.8908825	219
74.90759376	228
74.92430503	210
74.9410163	215
74.95772757	245
74.97443884	262
74.99115011	278
75.00786138	277
75.02457265	298
75.04128392	359
75.05799519	309
75.07470645	333
75.09141772	323
75.10812899	350
75.12484026	360
75.14155153	402
75.1582628	379
75.17497407	410
75.19168534	387
75.20839661	390
75.22510788	377
75.24181914	392
75.25853041	446
75.27524168	409
75.29195295	416
75.30866422	416
75.32537549	421
75.34208676	416
75.35879803	419
75.3755093	411
75.39222057	382
75.40893183	376
75.4256431	365
75.44235437	326
75.45906564	403
75.47577691	328
75.49248818	321
75.50919945	313
75.52591072	298
75.54262199	295
75.55933325	288
75.57604452	279
75.59275579	277
75.60946706	282
75.62617833	253
75.6428896	250
75.65960087	222
75.67631214	222
75.69302341	202
75.70973468	224
75.72644594	177
75.74315721	183
75.75986848	184
75.77657975	142
75.79329102	175
75.81000229	169
75.82671356	154
75.84342483	150
75.8601361	159
75.87684737	141
75.89355863	135
75.9102699	135
75.92698117	126
75.94369244	115
75.96040371	115
75.97711498	116
75.99382625	100
76.01053752	89
76.02724879	119
76.04396006	108
76.06067132	95
76.07738259	103
76.09409386	93
76.11080513	77
76.1275164	65
76.14422767	87
76.16093894	70
76.17765021	74
76.19436148	74
76.21107275	66
76.22778401	66
76.24449528	80
76.26120655	68
76.27791782	70
76.29462909	82
76.31134036	55
76.32805163	59
76.3447629	66
76.36147417	55
76.37818543	59
76.3948967	53
76.41160797	59
76.42831924	51
76.44503051	52
76.46174178	56
76.47845305	53
76.49516432	53
76.51187559	53
76.52858686	58
76.54529812	44
76.56200939	35
76.57872066	54
76.59543193	50
76.6121432	42
76.62885447	66
76.64556574	43
76.66227701	38
76.67898828	52
76.69569955	46
76.71241081	43
76.72912208	25
76.74583335	47
76.76254462	32
76.77925589	49
76.79596716	54
76.81267843	35
76.8293897	44
76.84610097	37
76.86281224	34
76.8795235	46
76.89623477	29
76.91294604	46
76.92965731	41
76.94636858	34
76.96307985	33
76.97979112	32
76.99650239	42
77.01321366	47
77.02992492	34
77.04663619	34
77.06334746	40
77.08005873	36
77.09677	33
77.11348127	25
77.13019254	36
77.14690381	39
77.16361508	47
77.18032635	34
77.19703761	34
77.21374888	27
77.23046015	49
77.24717142	37
77.26388269	31
77.28059396	40
77.29730523	38
77.3140165	41
77.33072777	26
77.34743904	23
77.3641503	37
77.38086157	20
77.39757284	27
77.41428411	33
77.43099538	22
77.44770665	35
77.46441792	37
77.48112919	32
77.49784046	33
77.51455173	42
77.53126299	27
77.54797426	22
77.56468553	34
77.5813968	35
77.59810807	27
77.61481934	32
77.63153061	26
77.64824188	40
77.66495315	29
77.68166442	34
77.69837568	28
77.71508695	17
77.73179822	27
77.74850949	25
77.76522076	34
77.78193203	23
77.7986433	31
77.81535457	34
77.83206584	33
77.8487771	40
77.86548837	31
77.88219964	38
77.89891091	32
77.91562218	24
77.93233345	23
77.94904472	35
77.96575599	26
77.98246726	24
77.99917853	20
78.01588979	20
78.03260106	31
78.04931233	25
78.0660236	22
78.08273487	36
78.09944614	26
78.11615741	34
78.13286868	37
78.14957995	28
78.16629122	28
78.18300248	24
78.19971375	21
78.21642502	25
78.23313629	35
78.24984756	34
78.26655883	37
78.2832701	20
78.29998137	34
78.31669264	32
78.33340391	41
78.35011517	34
78.36682644	25
78.38353771	26
78.40024898	26
78.41696025	24
78.43367152	28
78.45038279	31
78.46709406	23
78.48380533	34
78.5005166	37
78.51722786	26
78.53393913	29
78.5506504	25
78.56736167	24
78.58407294	27
78.60078421	23
78.61749548	25
78.63420675	22
78.65091802	34
78.66762928	42
78.68434055	18
78.70105182	26
78.71776309	32
78.73447436	35
78.75118563	28
78.7678969	27
78.78460817	34
78.80131944	28
78.81803071	31
78.83474197	18
78.85145324	33
78.86816451	35
78.88487578	32
78.90158705	34
78.91829832	35
78.93500959	29
78.95172086	31
78.96843213	35
78.9851434	26
79.00185466	23
79.01856593	20
79.0352772	35
79.05198847	26
79.06869974	36
79.08541101	20
79.10212228	26
79.11883355	17
79.13554482	31
79.15225609	32
79.16896735	25
79.18567862	34
79.20238989	26
79.21910116	24
79.23581243	28
79.2525237	28
79.26923497	32
79.28594624	22
79.30265751	31
79.31936877	22
79.33608004	22
79.35279131	27
79.36950258	25
79.38621385	33
79.40292512	17
79.41963639	16
79.43634766	25
79.45305893	35
79.4697702	24
79.48648146	22
79.50319273	22
79.519904	17
79.53661527	28
79.55332654	27
79.57003781	24
79.58674908	16
79.60346035	25
79.62017162	28
79.63688289	26
79.65359415	27
79.67030542	34
79.68701669	26
79.70372796	37
79.72043923	25
79.7371505	24
79.75386177	21
79.77057304	25
79.78728431	25
79.80399558	25
79.82070684	20
79.83741811	24
79.85412938	16
79.87084065	24
79.88755192	27
79.90426319	25
79.92097446	20
79.93768573	33
79.954397	29
79.97110827	27
79.98781953	37
80.0045308	31
80.02124207	23
80.03795334	19
80.05466461	24
80.07137588	24
80.08808715	27
80.10479842	28
80.12150969	25
80.13822095	33
80.15493222	35
80.17164349	25
80.18835476	26
80.20506603	31
80.2217773	32
80.23848857	29
80.25519984	21
80.27191111	32
80.28862238	21
80.30533364	24
80.32204491	26
80.33875618	36
80.35546745	37
80.37217872	31
80.38888999	29
80.40560126	28
80.42231253	28
80.4390238	18
80.45573507	37
80.47244633	31
80.4891576	26
80.50586887	22
80.52258014	24
80.53929141	20
80.55600268	24
80.57271395	29
80.58942522	26
80.60613649	28
80.62284776	24
80.63955902	27
80.65627029	31
80.67298156	24
80.68969283	34
80.7064041	32
80.72311537	32
80.73982664	21
80.75653791	38
80.77324918	35
80.78996044	36
80.80667171	37
80.82338298	18
80.84009425	24
80.85680552	32
80.87351679	33
80.89022806	32
80.90693933	41
80.9236506	29
80.94036187	20
80.95707313	42
80.9737844	27
80.99049567	26
81.00720694	40
81.02391821	35
81.04062948	23
81.05734075	31
81.07405202	37
81.09076329	32
81.10747456	36
81.12418582	35
81.14089709	44
81.15760836	39
81.17431963	43
81.1910309	38
81.20774217	32
81.22445344	38
81.24116471	39
81.25787598	34
81.27458725	39
81.29129851	40
81.30800978	37
81.32472105	39
81.34143232	34
81.35814359	41
81.37485486	40
81.39156613	42
81.4082774	46
81.42498867	41
81.44169994	52
81.4584112	42
81.47512247	35
81.49183374	29
81.50854501	39
81.52525628	46
81.54196755	36
81.55867882	53
81.57539009	44
81.59210136	62
81.60881262	40
81.62552389	51
81.64223516	49
81.65894643	55
81.6756577	57
81.69236897	67
81.70908024	77
81.72579151	59
81.74250278	56
81.75921405	65
81.77592531	61
81.79263658	74
81.80934785	69
81.82605912	61
81.84277039	56
81.85948166	86
81.87619293	88
81.8929042	86
81.90961547	89
81.92632674	74
81.943038	87
81.95974927	97
81.97646054	98
81.99317181	91
82.00988308	96
82.02659435	104
82.04330562	101
82.06001689	135
82.07672816	127
82.09343943	131
82.11015069	127
82.12686196	132
82.14357323	113
82.1602845	156
82.17699577	124
82.19370704	162
82.21041831	161
82.22712958	179
82.24384085	184
82.26055212	163
82.27726338	157
82.29397465	186
82.31068592	185
82.32739719	174
82.34410846	192
82.36081973	197
82.377531	207
82.39424227	205
82.41095354	218
82.4276648	208
82.44437607	222
82.46108734	203
82.47779861	222
82.49450988	228
82.51122115	225
82.52793242	240
82.54464369	252
82.56135496	241
82.57806623	240
82.59477749	240
82.61148876	229
82.62820003	215
82.6449113	249
82.66162257	234
82.67833384	203
82.69504511	222
82.71175638	188
82.72846765	213
82.74517892	175
82.76189018	194
82.77860145	193
82.79531272	174
82.81202399	208
82.82873526	170
82.84544653	188
82.8621578	179
82.87886907	144
82.89558034	192
82.91229161	170
82.92900287	152
82.94571414	178
82.96242541	170
82.97913668	174
82.99584795	130
83.01255922	158
83.02927049	156
83.04598176	134
83.06269303	108
83.07940429	137
83.09611556	118
83.11282683	127
83.1295381	120
83.14624937	103
83.16296064	108
83.17967191	94
83.19638318	108
83.21309445	96
83.22980572	106
83.24651698	87
83.26322825	95
83.27993952	101
83.29665079	88
83.31336206	84
83.33007333	91
83.3467846	89
83.36349587	83
83.38020714	79
83.39691841	77
83.41362967	77
83.43034094	71
83.44705221	64
83.46376348	55
83.48047475	63
83.49718602	56
83.51389729	62
83.53060856	47
83.54731983	53
83.5640311	61
83.58074236	68
83.59745363	57
83.6141649	52
83.63087617	47
83.64758744	57
83.66429871	57
83.68100998	47
83.69772125	47
83.71443252	41
83.73114379	38
83.74785505	44
83.76456632	44
83.78127759	44
83.79798886	33
83.81470013	52
83.8314114	39
83.84812267	39
83.86483394	48
83.88154521	44
83.89825647	37
83.91496774	33
83.93167901	50
83.94839028	32
83.96510155	35
83.98181282	37
83.99852409	46
84.01523536	36
84.03194663	36
84.0486579	24
84.06536916	28
84.08208043	31
84.0987917	26
84.11550297	34
84.13221424	29
84.14892551	34
84.16563678	24
84.18234805	24
84.19905932	26
84.21577059	22
84.23248185	19
84.24919312	26
84.26590439	27
84.28261566	44
84.29932693	32
84.3160382	24
84.33274947	35
84.34946074	27
84.36617201	28
84.38288328	35
84.39959454	34
84.41630581	24
84.43301708	26
84.44972835	26
84.46643962	24
84.48315089	26
84.49986216	33
84.51657343	23
84.5332847	29
84.54999596	35
84.56670723	25
84.5834185	35
84.60012977	26
84.61684104	33
84.63355231	32
84.65026358	27
84.66697485	26
84.68368612	14
84.70039739	22
84.71710865	28
84.73381992	28
84.75053119	22
84.76724246	28
84.78395373	23
84.800665	33
84.81737627	17
84.83408754	28
84.85079881	37
84.86751008	26
84.88422134	26
84.90093261	28
84.91764388	19
84.93435515	24
84.95106642	19
84.96777769	32
84.98448896	25
85.00120023	19
85.0179115	28
85.03462277	22
85.05133403	29
85.0680453	36
85.08475657	25
85.10146784	28
85.11817911	23
85.13489038	34
85.15160165	20
85.16831292	26
85.18502419	22
85.20173546	17
85.21844672	28
85.23515799	19
85.25186926	25
85.26858053	31
85.2852918	22
85.30200307	29
85.31871434	21
85.33542561	29
85.35213688	21
85.36884814	24
85.38555941	29
85.40227068	23
85.41898195	20
85.43569322	31
85.45240449	22
85.46911576	28
85.48582703	24
85.5025383	31
85.51924957	18
85.53596083	31
85.5526721	34
85.56938337	23
85.58609464	14
85.60280591	23
85.61951718	25
85.63622845	16
85.65293972	32
85.66965099	23
85.68636226	27
85.70307352	28
85.71978479	27
85.73649606	20
85.75320733	34
85.7699186	25
85.78662987	19
85.80334114	28
85.82005241	22
85.83676368	23
85.85347495	26
85.87018621	29
85.88689748	19
85.90360875	10
85.92032002	32
85.93703129	17
85.95374256	25
85.97045383	29
85.9871651	27
86.00387637	23
86.02058764	29
86.0372989	21
86.05401017	17
86.07072144	34
86.08743271	24
86.10414398	21
86.12085525	20
86.13756652	36
86.15427779	16
86.17098906	29
86.18770032	27
86.20441159	24
86.22112286	39
86.23783413	26
86.2545454	27
86.27125667	26
86.28796794	22
86.30467921	22
86.32139048	21
86.33810175	31
86.35481301	29
86.37152428	29
86.38823555	21
86.40494682	21
86.42165809	18
86.43836936	27
86.45508063	25
86.4717919	27
86.48850317	34
86.50521444	25
86.5219257	28
86.53863697	18
86.55534824	23
86.57205951	31
86.58877078	20
86.60548205	24
86.62219332	25
86.63890459	21
86.65561586	27
86.67232713	29
86.68903839	23
86.70574966	28
86.72246093	25
86.7391722	22
86.75588347	25
86.77259474	27
86.78930601	29
86.80601728	21
86.82272855	34
86.83943981	23
86.85615108	16
86.87286235	23
86.88957362	22
86.90628489	24
86.92299616	23
86.93970743	25
86.9564187	31
86.97312997	21
86.98984124	22
87.0065525	25
87.02326377	21
87.03997504	31
87.05668631	19
87.07339758	28
87.09010885	27
87.10682012	29
87.12353139	18
87.14024266	21
87.15695393	18
87.17366519	19
87.19037646	23
87.20708773	29
87.223799	27
87.24051027	28
87.25722154	21
87.27393281	24
87.29064408	17
87.30735535	23
87.32406662	26
87.34077788	21
87.35748915	22
87.37420042	18
87.39091169	21
87.40762296	32
87.42433423	22
87.4410455	26
87.45775677	17
87.47446804	21
87.49117931	22
87.50789057	20
87.52460184	17
87.54131311	28
87.55802438	17
87.57473565	37
87.59144692	29
87.60815819	21
87.62486946	29
87.64158073	23
87.65829199	31
87.67500326	23
87.69171453	23
87.7084258	22
87.72513707	26
87.74184834	37
87.75855961	19
87.77527088	23
87.79198215	25
87.80869342	23
87.82540468	24
87.84211595	24
87.85882722	24
87.87553849	19
87.89224976	23
87.90896103	27
87.9256723	20
87.94238357	26
87.95909484	17
87.97580611	26
87.99251737	22
88.00922864	19
88.02593991	31
88.04265118	22
88.05936245	18
88.07607372	35
88.09278499	26
88.10949626	24
88.12620753	27
88.1429188	25
88.15963006	27
88.17634133	21
88.1930526	32
88.20976387	24
88.22647514	28
88.24318641	22
88.25989768	33
88.27660895	32
88.29332022	21
88.31003148	27
88.32674275	26
88.34345402	21
88.36016529	26
88.37687656	27
88.39358783	22
88.4102991	31
88.42701037	18
88.44372164	29
88.46043291	20
88.47714417	25
88.49385544	28
88.51056671	32
88.52727798	27
88.54398925	21
88.56070052	19
88.57741179	27
88.59412306	26
88.61083433	22
88.6275456	31
88.64425686	31
88.66096813	36
88.6776794	26
88.69439067	36
88.71110194	26
88.72781321	28
88.74452448	42
88.76123575	32
88.77794702	20
88.79465829	32
88.81136955	31
88.82808082	33
88.84479209	21
88.86150336	21
88.87821463	26
88.8949259	17
88.91163717	25
88.92834844	27
88.94505971	20
88.96177098	22
88.97848224	31
88.99519351	27
89.01190478	18
89.02861605	32
89.04532732	19
89.06203859	25
89.07874986	23
89.09546113	40
89.1121724	35
89.12888366	23
89.14559493	34
89.1623062	27
89.17901747	26
89.19572874	23
89.21244001	25
89.22915128	37
89.24586255	21
89.26257382	38
89.27928509	28
89.29599635	26
89.31270762	36
89.32941889	18
89.34613016	19
89.36284143	34
89.3795527	38
89.39626397	19
89.41297524	46
89.42968651	22
89.44639778	22
89.46310904	29
89.47982031	42
89.49653158	26
89.51324285	39
89.52995412	29
89.54666539	24
89.56337666	32
89.58008793	39
89.5967992	24
89.61351047	39
89.63022173	33
89.646933	31
89.66364427	37
89.68035554	29
89.69706681	49
89.71377808	44
89.73048935	33
89.74720062	33
89.76391189	44
89.78062316	28
89.79733442	41
89.81404569	39
89.83075696	44
89.84746823	44
89.8641795	36
89.88089077	35
89.89760204	42
89.91431331	46
89.93102458	40
89.94773584	28
89.96444711	38
89.98115838	40
89.99786965	49
90.01458092	37
90.03129219	47
90.04800346	42
90.06471473	51
90.081426	40
90.09813727	41
90.11484853	33
90.1315598	50
90.14827107	42
90.16498234	46
90.18169361	57
90.19840488	52
90.21511615	56
90.23182742	38
90.24853869	61
90.26524996	69
90.28196122	57
90.29867249	56
90.31538376	50
90.33209503	48
90.3488063	71
90.36551757	48
90.38222884	59
90.39894011	69
90.41565138	57
90.43236265	62
90.44907391	52
90.46578518	58
90.48249645	69
90.49920772	57
90.51591899	64
90.53263026	63
90.54934153	77
90.5660528	54
90.58276407	87
90.59947533	81
90.6161866	76
90.63289787	67
90.64960914	81
90.66632041	78
90.68303168	74
90.69974295	70
90.71645422	68
90.73316549	77
90.74987676	99
90.76658802	86
90.78329929	92
90.80001056	96
90.81672183	89
90.8334331	102
90.85014437	87
90.86685564	106
90.88356691	87
90.90027818	106
90.91698945	92
90.93370071	95
90.95041198	112
90.96712325	95
90.98383452	92
91.00054579	95
91.01725706	95
91.03396833	108
91.0506796	107
91.06739087	89
91.08410214	97
91.1008134	101
91.11752467	94
91.13423594	109
91.15094721	82
91.16765848	113
91.18436975	103
91.20108102	92
91.21779229	94
91.23450356	93
91.25121483	99
91.26792609	110
91.28463736	80
91.30134863	85
91.3180599	87
91.33477117	91
91.35148244	80
91.36819371	101
91.38490498	80
91.40161625	83
91.41832751	80
91.43503878	87
91.45175005	93
91.46846132	92
91.48517259	79
91.50188386	84
91.51859513	80
91.5353064	77
91.55201767	71
91.56872894	67
91.5854402	62
91.60215147	76
91.61886274	85
91.63557401	65
91.65228528	56
91.66899655	80
91.68570782	62
91.70241909	63
91.71913036	69
91.73584163	62
91.75255289	49
91.76926416	66
91.78597543	54
91.8026867	61
91.81939797	73
91.83610924	58
91.85282051	59
91.86953178	64
91.88624305	52
91.90295432	50
91.91966558	47
91.93637685	50
91.95308812	57
91.96979939	40
91.98651066	42
92.00322193	36
92.0199332	43
92.03664447	40
92.05335574	41
92.07006701	51
92.08677827	39
92.10348954	40
92.12020081	43
92.13691208	36
92.15362335	35
92.17033462	31
92.18704589	32
92.20375716	52
92.22046843	44
92.23717969	43
92.25389096	35
92.27060223	47
92.2873135	25
92.30402477	35
92.32073604	32
92.33744731	37
92.35415858	36
92.37086985	40
92.38758112	36
92.40429238	38
92.42100365	26
92.43771492	31
92.45442619	27
92.47113746	33
92.48784873	38
92.50456	42
92.52127127	22
92.53798254	28
92.55469381	36
92.57140507	22
92.58811634	40
92.60482761	22
92.62153888	28
92.63825015	27
92.65496142	27
92.67167269	38
92.68838396	23
92.70509523	25
92.7218065	24
92.73851776	23
92.75522903	36
92.7719403	20
92.78865157	28
92.80536284	36
92.82207411	33
92.83878538	28
92.85549665	24
92.87220792	21
92.88891918	40
92.90563045	34
92.92234172	26
92.93905299	27
92.95576426	22
92.97247553	28
92.9891868	20
93.00589807	33
93.02260934	28
93.03932061	23
93.05603187	29
93.07274314	29
93.08945441	29
93.10616568	26
93.12287695	31
93.13958822	32
93.15629949	28
93.17301076	23
93.18972203	34
93.2064333	24
93.22314456	21
93.23985583	26
93.2565671	24
93.27327837	33
93.28998964	32
93.30670091	29
93.32341218	29
93.34012345	28
93.35683472	17
93.37354599	23
93.39025725	33
93.40696852	28
93.42367979	25
93.44039106	22
93.45710233	33
93.4738136	32
93.49052487	22
93.50723614	21
93.52394741	31
93.54065868	24
93.55736994	24
93.57408121	32
93.59079248	33
93.60750375	28
93.62421502	26
93.64092629	22
93.65763756	23
93.67434883	27
93.6910601	24
93.70777136	23
93.72448263	34
93.7411939	22
93.75790517	26
93.77461644	24
93.79132771	24
93.80803898	14
93.82475025	17
93.84146152	26
93.85817279	28
93.87488405	19
93.89159532	21
93.90830659	25
93.92501786	21
93.94172913	14
93.9584404	21
93.97515167	19
93.99186294	22
94.00857421	24
94.02528548	18
94.04199674	11
94.05870801	19
94.07541928	11
94.09213055	22
94.10884182	22
94.12555309	16
94.14226436	27
94.15897563	19
94.1756869	25
94.19239817	25
94.20910943	24
94.2258207	21
94.24253197	28
94.25924324	25
94.27595451	26
94.29266578	26
94.30937705	25
94.32608832	20
94.34279959	26
94.35951085	18
94.37622212	19
94.39293339	25
94.40964466	25
94.42635593	19
94.4430672	22
94.45977847	22
94.47648974	18
94.49320101	23
94.50991228	28
94.52662354	20
94.54333481	21
94.56004608	21
94.57675735	26
94.59346862	26
94.61017989	24
94.62689116	27
94.64360243	32
94.6603137	42
94.67702497	26
94.69373623	21
94.7104475	21
94.72715877	20
94.74387004	23
94.76058131	32
94.77729258	28
94.79400385	35
94.81071512	12
94.82742639	31
94.84413766	25
94.86084892	24
94.87756019	22
94.89427146	23
94.91098273	21
94.927694	23
94.94440527	19
94.96111654	24
94.97782781	18
94.99453908	25
95.01125035	21
95.02796161	27
95.04467288	28
95.06138415	25
95.07809542	25
95.09480669	29
95.11151796	32
95.12822923	20
95.1449405	26
95.16165177	12
95.17836303	28
95.1950743	19
95.21178557	27
95.22849684	22
95.24520811	26
95.26191938	19
95.27863065	24
95.29534192	23
95.31205319	19
95.32876446	22
95.34547572	20
95.36218699	27
95.37889826	25
95.39560953	24
95.4123208	17
95.42903207	17
95.44574334	34
95.46245461	13
95.47916588	26
95.49587715	21
95.51258841	19
95.52929968	33
95.54601095	25
95.56272222	24
95.57943349	20
95.59614476	33
95.61285603	18
95.6295673	23
95.64627857	23
95.66298984	12
95.6797011	26
95.69641237	23
95.71312364	27
95.72983491	19
95.74654618	22
95.76325745	32
95.77996872	26
95.79667999	28
95.81339126	31
95.83010253	35
95.84681379	43
95.86352506	26
95.88023633	28
95.8969476	36
95.91365887	32
95.93037014	25
95.94708141	19
95.96379268	29
95.98050395	27
95.99721521	36
96.01392648	26
96.03063775	26
96.04734902	26
96.06406029	32
96.08077156	33
96.09748283	19
96.1141941	36
96.13090537	34
96.14761664	32
96.1643279	28
96.18103917	22
96.19775044	37
96.21446171	47
96.23117298	35
96.24788425	23
96.26459552	35
96.28130679	32
96.29801806	35
96.31472933	36
96.33144059	47
96.34815186	38
96.36486313	36
96.3815744	32
96.39828567	31
96.41499694	31
96.43170821	26
96.44841948	36
96.46513075	28
96.48184202	43
96.49855328	46
96.51526455	38
96.53197582	33
96.54868709	35
96.56539836	35
96.58210963	31
96.5988209	41
96.61553217	27
96.63224344	49
96.6489547	37
96.66566597	34
96.68237724	27
96.69908851	44
96.71579978	43
96.73251105	34
96.74922232	28
96.76593359	38
96.78264486	35
96.79935613	33
96.81606739	26
96.83277866	29
96.84948993	37
96.8662012	36
96.88291247	34
96.89962374	19
96.91633501	36
96.93304628	25
96.94975755	28
96.96646882	33
96.98318008	31
96.99989135	23
97.01660262	27
97.03331389	29
97.05002516	22
97.06673643	22
97.0834477	24
97.10015897	36
97.11687024	33
97.13358151	17
97.15029277	20
97.16700404	23
97.18371531	36
97.20042658	20
97.21713785	39
97.23384912	25
97.25056039	26
97.26727166	24
97.28398293	13
97.3006942	18
97.31740546	34
97.33411673	28
97.350828	24
97.36753927	21
97.38425054	27
97.40096181	20
97.41767308	22
97.43438435	22
97.45109562	29
97.46780688	26
97.48451815	27
97.50122942	25
97.51794069	19
97.53465196	27
97.55136323	32
97.5680745	20
97.58478577	33
97.60149704	27
97.61820831	31
97.63491957	26
97.65163084	22
97.66834211	19
97.68505338	22
97.70176465	28
97.71847592	20
97.73518719	28
97.75189846	24
97.76860973	24
97.785321	29
97.80203226	28
97.81874353	17
97.8354548	28
97.85216607	13
97.86887734	23
97.88558861	24
97.90229988	28
97.91901115	28
97.93572242	21
97.95243369	26
97.96914495	22
97.98585622	25
98.00256749	14
98.01927876	23
98.03599003	33
98.0527013	18
98.06941257	20
98.08612384	28
98.10283511	24
98.11954637	22
98.13625764	9
98.15296891	20
98.16968018	19
98.18639145	33
98.20310272	23
98.21981399	25
98.23652526	23
98.25323653	28
98.2699478	29
98.28665906	28
98.30337033	28
98.3200816	22
98.33679287	24
98.35350414	16
98.37021541	19
98.38692668	27
98.40363795	18
98.42034922	32
98.43706049	24
98.45377175	22
98.47048302	28
98.48719429	24
98.50390556	32
98.52061683	33
98.5373281	21
98.55403937	19
98.57075064	35
98.58746191	33
98.60417318	32
98.62088444	35
98.63759571	28
98.65430698	27
98.67101825	25
98.68772952	35
98.70444079	33
98.72115206	23
98.73786333	27
98.7545746	36
98.77128587	37
98.78799713	33
98.8047084	23
98.82141967	36
98.83813094	27
98.85484221	27
98.87155348	27
98.88826475	35
98.90497602	32
98.92168729	39
98.93839855	31
98.95510982	26
98.97182109	38
98.98853236	36
99.00524363	36
99.0219549	26
99.03866617	35
99.05537744	25
99.07208871	20
99.08879998	27
99.10551124	24
99.12222251	25
99.13893378	20
99.15564505	29
99.17235632	28
99.18906759	27
99.20577886	28
99.22249013	37
99.2392014	27
99.25591267	32
99.27262393	44
99.2893352	29
99.30604647	25
99.32275774	27
99.33946901	34
99.35618028	25
99.37289155	19
99.38960282	25
99.40631409	24
99.42302536	25
99.43973662	22
99.45644789	22
99.47315916	27
99.48987043	31
99.5065817	31
99.52329297	25
99.54000424	29
99.55671551	24
99.57342678	21
99.59013805	20
99.60684931	14
99.62356058	18
99.64027185	27
99.65698312	25
99.67369439	28
99.69040566	22
99.70711693	36
99.7238282	32
99.74053947	34
99.75725073	29
99.773962	18
99.79067327	17
99.80738454	26
99.82409581	25
99.84080708	22
99.85751835	26
99.87422962	27
99.89094089	14
99.90765216	23
99.92436342	14
99.94107469	23
99.95778596	24
99.97449723	21
99.9912085	16